# {"dataType":"PPG",
# "sensor":"MAX30102",
# "hardware":"LPC824_MAX30102",
# "firmware":"0.1",
# "sampling_rate":100,
# "subject":"JD",
# "timestamp":"2017-07-23T18:30",
# "sensorLocations":["left hand middle finter tip","left hand palm"] }
1500834490.315364 33292971 0 2544250 3105078 72 270
1500834490.320754 33298627 1 2253509 2544644 79 236
1500834490.322334 33300110 0 2544232 3105129 51 301
1500834490.329431 33307249 0 2544267 3105171 81 322
1500834490.330965 33308857 1 2253528 2544683 92 258
1500834490.336592 33314388 0 2544285 3105194 93 324
1500834490.340991 33319087 1 2253519 2544655 78 216
1500834490.343536 33321527 0 2544279 3105210 82 319
1500834490.350588 33328666 0 2544264 3105210 63 300
1500834490.351926 33329317 1 2253505 2544614 60 165
1500834490.357819 33335805 0 2544247 3105180 44 254
1500834490.361418 33339545 1 2253489 2544552 42 97
1500834490.364776 33342944 0 2544236 3105053 31 120
1500834490.371600 33349774 1 2253443 2544484 -3 28
1500834490.373191 33350083 0 2544185 3104945 -18 12
1500834490.379059 33357223 0 2544136 3104787 -62 -136
1500834490.381504 33360002 1 2253422 2544431 -22 -23
1500834490.386328 33364362 0 2544089 3104592 -102 -310
1500834490.391923 33370230 1 2253389 2544358 -51 -90
1500834490.393397 33371500 0 2544058 3104471 -124 -404
1500834490.400265 33378639 0 2543976 3104299 -193 -540
1500834490.402178 33380458 1 2253390 2544286 -46 -151
1500834490.407689 33385778 0 2543959 3104163 -196 -633
1500834490.412280 33390687 1 2253348 2544245 -82 -180
1500834490.414585 33392917 0 2543902 3104032 -237 -716
1500834490.421883 33400056 0 2543874 3103937 -248 -760
1500834490.423208 33400917 1 2253329 2544180 -94 -229
1500834490.428844 33407195 0 2543835 3103824 -269 -818
1500834490.432791 33411147 1 2253303 2544110 -112 -280
1500834490.436286 33414334 0 2543798 3103705 -286 -878
1500834490.442904 33421377 1 2253281 2544052 -125 -316
1500834490.444414 33421474 0 2543762 3103667 -301 -858
1500834490.450242 33428613 0 2543776 3103611 -269 -856
1500834490.453198 33431608 1 2253262 2543945 -135 -396
1500834490.457652 33435753 0 2543751 3103513 -275 -894
1500834490.463337 33441837 1 2253210 2543874 -175 -437
1500834490.464790 33442892 0 2543730 3103479 -277 -870
1500834490.471652 33450032 0 2543713 3103428 -275 -863
1500834490.473561 33452068 1 2253163 2543816 -208 -464
1500834490.478683 33457172 0 2543730 3103397 -241 -838
1500834490.483793 33462298 1 2253181 2543751 -178 -495
1500834490.485733 33464311 0 2543681 3103393 -271 -789
1500834490.493238 33471451 0 2543693 3103395 -242 -737
1500834490.494537 33472529 1 2253166 2543718 -180 -495
1500834490.500142 33478591 0 2543707 3103406 -213 -680
1500834490.504390 33482759 1 2253159 2543703 -175 -478
1500834490.507383 33485731 0 2543713 3103401 -194 -642
1500834490.514610 33492871 0 2543710 3103466 -184 -540
1500834490.515897 33492989 1 2253176 2543704 -148 -447
1500834490.521599 33500010 0 2543715 3103495 -167 -479
1500834490.524667 33503218 1 2253156 2543689 -157 -433
1500834490.528667 33507150 0 2543783 3103505 -92 -439
1500834490.534887 33513447 1 2253149 2543662 -153 -431
1500834490.536503 33514289 0 2543722 3103537 -143 -381
1500834490.542902 33521428 0 2543743 3103566 -114 -330
1500834490.545167 33523675 1 2253164 2543666 -129 -400
1500834490.549970 33528566 0 2543779 3103580 -73 -296
1500834490.555125 33533904 1 2253187 2543682 -99 -360
1500834490.556995 33535706 0 2543738 3103596 -106 -262
1500834490.564136 33542845 0 2543746 3103618 -91 -225
1500834490.565598 33544133 1 2253175 2543678 -104 -341
1500834490.571268 33549985 0 2543778 3103616 -55 -212
1500834490.575682 33554362 1 2253159 2543657 -112 -339
1500834490.578413 33557125 0 2543765 3103601 -63 -212
1500834490.585527 33564264 0 2543768 3103640 -56 -162
1500834490.586920 33564593 1 2253157 2543615 -106 -357
1500834490.592632 33571403 0 2543764 3103658 -56 -135
1500834490.596054 33574822 1 2253156 2543625 -100 -325
1500834490.599836 33578543 0 2543801 3103676 -17 -109
1500834490.606405 33585052 1 2253148 2543619 -101 -310
1500834490.607782 33585683 0 2543766 3103708 -48 -72
1500834490.614071 33592823 0 2543775 3103745 -36 -32
1500834490.616660 33595281 1 2253151 2543632 -91 -278
1500834490.621096 33599963 0 2543825 3103764 14 -12
1500834490.626652 33605511 1 2253154 2543634 -82 -258
1500834490.628271 33607102 0 2543814 3103824 3 45
1500834490.635419 33614242 0 2543816 3103860 5 76
1500834490.636785 33615741 1 2253175 2543634 -57 -241
1500834490.642465 33621381 0 2543837 3103889 25 99
1500834490.647046 33625970 1 2253173 2543656 -55 -205
1500834490.649544 33628520 0 2543845 3103892 31 96
1500834490.656791 33635659 0 2543841 3103903 26 101
1500834490.658039 33636198 1 2253174 2543640 -50 -207
1500834490.663759 33642798 0 2543838 3103898 22 90
1500834490.667388 33646428 1 2253176 2543650 -45 -184
1500834490.671100 33649937 0 2543845 3103896 28 83
1500834490.677635 33656658 1 2253176 2543682 -42 -142
1500834490.679290 33657076 0 2543815 3103878 -1 61
1500834490.685270 33664216 0 2543802 3103846 -13 28
1500834490.687873 33666887 1 2253185 2543666 -30 -148
1500834490.692276 33671355 0 2543813 3103823 -1 5
1500834490.698011 33677116 1 2253202 2543705 -12 -102
1500834490.699306 33678495 0 2543814 3103867 0 46
1500834490.706531 33685634 0 2543811 3103899 -2 74
1500834490.708180 33687344 1 2253199 2543719 -14 -82
1500834490.713532 33692773 0 2543853 3103921 38 90
1500834490.718448 33697573 1 2253221 2543755 8 -43
1500834490.720798 33699912 0 2543828 3103930 13 93
1500834490.728225 33707052 0 2543824 3103936 9 93
1500834490.729385 33707802 1 2253224 2543737 11 -57
1500834490.734916 33714192 0 2543834 3103945 18 96
1500834490.738645 33718032 1 2253210 2543751 -2 -40
1500834490.742075 33721332 0 2543824 3103921 8 68
1500834490.749217 33728261 1 2253214 2543761 2 -28
1500834490.750533 33728471 0 2543843 3103968 26 108
1500834490.756235 33735610 0 2543848 3103997 30 129
1500834490.759076 33738491 1 2253228 2543784 15 -4
1500834490.763519 33742749 0 2543864 3104037 44 159
1500834490.769242 33748720 1 2253220 2543803 7 15
1500834490.770796 33749889 0 2543869 3104127 46 234
1500834490.777677 33757029 0 2543892 3104184 65 273
1500834490.779508 33758950 1 2253230 2543819 16 30
1500834490.784965 33764168 0 2543953 3104232 119 301
1500834490.789740 33769181 1 2253247 2543859 31 66
1500834490.791963 33771307 0 2543932 3104261 92 310
1500834490.801499 33778446 0 2543935 3104285 90 314
1500834490.804935 33779411 1 2253255 2543873 37 75
1500834490.806432 33785585 0 2543924 3104280 75 290
1500834490.810313 33789640 1 2253266 2543876 45 74
1500834490.813521 33792723 0 2543911 3104220 59 216
1500834490.820594 33799862 0 2543914 3104242 59 224
1500834490.821798 33799868 1 2253249 2543887 27 80
1500834490.827389 33807001 0 2543911 3104179 53 151
1500834490.830507 33810096 1 2253258 2543887 34 75
1500834490.834594 33814139 0 2543926 3104141 64 106
1500834490.840653 33820326 1 2253247 2543928 22 109
1500834490.842077 33821277 0 2543881 3104184 18 140
1500834490.848900 33828416 0 2543870 3104183 7 131
1500834490.850877 33830555 1 2253264 2543945 37 119
1500834490.856121 33835555 0 2543919 3104166 53 107
1500834490.861065 33840785 1 2253259 2543980 30 145
1500834490.863103 33842693 0 2543867 3104173 1 107
1500834490.870244 33849832 0 2543866 3104197 0 123
1500834490.871512 33851014 1 2253281 2544029 49 182
1500834490.877288 33856971 0 2543875 3104225 9 142
1500834490.881525 33861244 1 2253298 2544073 62 212
1500834490.884314 33864110 0 2543869 3104245 3 152
1500834490.891733 33871248 0 2543906 3104293 38 188
1500834490.892958 33871473 1 2253330 2544125 89 248
1500834490.898869 33878387 0 2543891 3104350 22 230
1500834490.902081 33881702 1 2253354 2544181 106 285
1500834490.906006 33885525 0 2543960 3104368 86 233
1500834490.912276 33891932 1 2253375 2544226 120 310
1500834490.913684 33892664 0 2543923 3104381 46 231
1500834490.920067 33899803 0 2543927 3104412 47 246
1500834490.922412 33902160 1 2253410 2544297 146 358
1500834490.927229 33906942 0 2543952 3104381 68 202
1500834490.932559 33912390 1 2253416 2544338 143 375
1500834490.934256 33914081 0 2543916 3104401 30 209
1500834490.941545 33921221 0 2543915 3104421 28 215
1500834490.942795 33922621 1 2253448 2544337 165 351
1500834490.948549 33928360 0 2543946 3104445 56 225
1500834490.953019 33932851 1 2253407 2544310 117 304
1500834490.955611 33935500 0 2543942 3104460 49 225
1500834490.963106 33942639 0 2543959 3104503 62 252
1500834490.964334 33943081 1 2253396 2544327 100 301
1500834490.969873 33949778 0 2543973 3104500 72 234
1500834490.973390 33953310 1 2253405 2544336 103 291
1500834490.977157 33956916 0 2543987 3104573 81 288
1500834490.983572 33963539 1 2253391 2544319 84 257
1500834490.984999 33964055 0 2543998 3104619 87 314
1500834490.991311 33971194 0 2544022 3104681 105 353
1500834490.993813 33973768 1 2253385 2544313 74 236
1500834490.998450 33978332 0 2544054 3104724 129 372
1500834491.004013 33983995 1 2253367 2544296 53 206
1500834491.005515 33985471 0 2544075 3104829 141 448
1500834491.012603 33992609 0 2544097 3104889 153 477
1500834491.014038 33994224 1 2253358 2544295 42 193
1500834491.019787 33999747 0 2544139 3104963 183 517
1500834491.024310 34004452 1 2253370 2544308 51 194
1500834491.026779 34006886 0 2544151 3105032 183 550
1500834491.033899 34014025 0 2544173 3105076 193 557
1500834491.035274 34014681 1 2253376 2544295 54 170
1500834491.040854 34021163 0 2544172 3105106 180 551
1500834491.044818 34024910 1 2253360 2544277 36 143
1500834491.048169 34028301 0 2544185 3105093 181 505
1500834491.054971 34035139 1 2253355 2544231 30 91
1500834491.056406 34035440 0 2544183 3105097 168 478
1500834491.062403 34042578 0 2544188 3105062 163 416
1500834491.065033 34045368 1 2253348 2544227 22 82
1500834491.069551 34049717 0 2544151 3104951 119 286
1500834491.075321 34055597 1 2253333 2544202 7 54
1500834491.076674 34056855 0 2544129 3104886 91 208
1500834491.083835 34063993 0 2544073 3104771 33 88
1500834491.085620 34065826 1 2253325 2544185 0 35
1500834491.090932 34071131 0 2544059 3104642 18 -38
1500834491.095713 34076055 1 2253306 2544107 -17 -40
1500834491.097879 34078270 0 2543981 3104501 -56 -167
1500834491.105077 34085409 0 2543944 3104399 -87 -252
1500834491.106440 34086284 1 2253298 2544046 -23 -94
1500834491.112182 34092548 0 2543920 3104279 -104 -348
1500834491.115971 34096513 1 2253233 2543937 -82 -190
1500834491.119393 34099687 0 2543882 3104148 -133 -449
1500834491.126416 34106743 1 2253206 2543849 -102 -260
1500834491.127805 34106826 0 2543852 3104079 -152 -485
1500834491.133612 34113964 0 2543843 3104012 -150 -517
1500834491.136513 34116974 1 2253170 2543760 -129 -327
1500834491.140829 34121103 0 2543827 3103895 -155 -594
1500834491.146850 34127204 1 2253144 2543694 -145 -368
1500834491.148312 34128242 0 2543798 3103868 -172 -582
1500834491.155186 34135381 0 2543765 3103832 -192 -579
1500834491.156873 34137433 1 2253119 2543618 -159 -416
1500834491.162125 34142519 0 2543808 3103749 -139 -620
1500834491.167162 34147662 1 2253093 2543583 -173 -422
1500834491.169174 34149658 0 2543757 3103709 -178 -618
1500834491.176247 34156796 0 2543734 3103681 -188 -605
1500834491.177654 34157890 1 2253083 2543513 -171 -461
1500834491.183416 34163935 0 2543736 3103666 -174 -581
1500834491.187548 34168119 1 2253060 2543469 -181 -473
1500834491.190423 34171074 0 2543712 3103600 -185 -606
1500834491.197604 34178213 0 2543708 3103651 -177 -520
1500834491.199238 34178348 1 2253047 2543420 -181 -489
1500834491.204633 34185352 0 2543723 3103670 -151 -469
1500834491.207766 34188578 1 2253023 2543379 -192 -496
1500834491.211798 34192491 0 2543774 3103664 -93 -445
1500834491.218132 34198808 1 2253029 2543364 -174 -479
1500834491.219522 34199630 0 2543707 3103689 -150 -393
1500834491.226069 34206769 0 2543729 3103693 -120 -364
1500834491.228272 34209038 1 2253039 2543379 -153 -435
1500834491.233200 34213907 0 2543761 3103670 -82 -362
1500834491.238322 34219267 1 2253048 2543399 -135 -389
1500834491.240298 34221046 0 2543723 3103720 -112 -292
1500834491.247401 34228185 0 2543707 3103727 -120 -267
1500834491.248678 34229497 1 2253069 2543404 -106 -360
1500834491.254500 34235323 0 2543716 3103732 -104 -245
1500834491.258693 34239727 1 2253051 2543432 -116 -311
1500834491.261549 34242461 0 2543721 3103755 -92 -208
1500834491.268583 34249600 0 2543747 3103782 -61 -169
1500834491.270018 34249957 1 2253062 2543429 -98 -294
1500834491.275698 34256739 0 2543732 3103804 -71 -137
1500834491.279287 34260187 1 2253067 2543442 -87 -263
1500834491.282973 34263878 0 2543768 3103812 -32 -120
1500834491.289723 34270417 1 2253061 2543464 -87 -225
1500834491.291008 34271017 0 2543747 3103862 -49 -65
1500834491.297216 34278156 0 2543727 3103865 -64 -58
1500834491.299897 34280646 1 2253077 2543481 -66 -195
1500834491.304316 34285295 0 2543772 3103874 -17 -45
1500834491.309920 34290877 1 2253066 2543514 -72 -151
1500834491.311424 34292434 0 2543776 3103906 -12 -12
1500834491.318483 34299572 0 2543770 3103946 -16 27
1500834491.320254 34301106 1 2253080 2543543 -54 -114
1500834491.325738 34306711 0 2543765 3103954 -19 33
1500834491.330201 34311336 1 2253100 2543563 -31 -88
1500834491.332609 34313848 0 2543761 3103955 -21 32
1500834491.339799 34320987 0 2543750 3103970 -30 45
1500834491.341229 34321566 1 2253082 2543548 -45 -96
1500834491.346819 34328126 0 2543748 3103953 -30 27
1500834491.350525 34331795 1 2253095 2543564 -30 -75
1500834491.354190 34335264 0 2543743 3103955 -32 28
1500834491.360953 34342025 1 2253089 2543583 -33 -52
1500834491.362201 34342402 0 2543736 3103939 -36 12
1500834491.368353 34349541 0 2543746 3103901 -24 -24
1500834491.370994 34352254 1 2253103 2543601 -17 -31
1500834491.375611 34356680 0 2543728 3103874 -39 -47
1500834491.381252 34362484 1 2253101 2543620 -17 -11
1500834491.382667 34363819 0 2543716 3103871 -47 -46
1500834491.389617 34370958 0 2543717 3103869 -43 -45
1500834491.391168 34372714 1 2253134 2543646 15 15
1500834491.396858 34378096 0 2543727 3103851 -30 -59
1500834491.401520 34382944 1 2253133 2543669 14 36
1500834491.404017 34385235 0 2543685 3103827 -67 -77
1500834491.411128 34392374 0 2543711 3103852 -38 -48
1500834491.412315 34393174 1 2253135 2543674 15 39
1500834491.418118 34399513 0 2543728 3103871 -19 -27
1500834491.421796 34403404 1 2253111 2543673 -8 36
1500834491.425127 34406652 0 2543722 3103848 -23 -46
1500834491.432328 34413635 1 2253116 2543676 -2 37
1500834491.433628 34413792 0 2543725 3103902 -18 8
1500834491.439505 34420931 0 2543731 3103915 -11 20
1500834491.442211 34423864 1 2253128 2543696 10 54
1500834491.446625 34428071 0 2543747 3103888 5 -6
1500834491.452570 34434094 1 2253116 2543690 -1 45
1500834491.453891 34435211 0 2543712 3103967 -28 69
1500834491.460978 34442350 0 2543741 3103955 1 54
1500834491.462656 34444323 1 2253107 2543692 -9 45
1500834491.467835 34449489 0 2543764 3103941 23 38
1500834491.472942 34454553 1 2253098 2543684 -16 35
1500834491.474999 34456628 0 2543735 3103969 -5 62
1500834491.482096 34463767 0 2543719 3103966 -19 56
1500834491.483433 34464782 1 2253096 2543693 -16 42
1500834491.489418 34470906 0 2543752 3103951 14 39
1500834491.493172 34475011 1 2253096 2543717 -15 62
1500834491.496248 34478045 0 2543753 3103935 15 22
1500834491.503421 34485184 0 2543729 3103978 -8 61
1500834491.504658 34485240 1 2253111 2543763 0 102
1500834491.510461 34492323 0 2543735 3103982 -1 61
1500834491.513548 34495471 1 2253130 2543797 18 128
1500834491.517593 34499462 0 2543782 3104016 44 90
1500834491.523995 34505701 1 2253149 2543867 35 186
1500834491.525359 34506601 0 2543772 3104078 32 143
1500834491.531953 34513740 0 2543793 3104122 50 176
1500834491.534092 34515932 1 2253177 2543915 60 220
1500834491.539052 34520880 0 2543847 3104144 98 186
1500834491.544321 34526163 1 2253212 2543955 90 244
1500834491.546238 34528019 0 2543817 3104206 64 233
1500834491.553426 34535159 0 2543818 3104231 61 242
1500834491.554666 34536393 1 2253215 2543993 88 265
1500834491.560425 34542299 0 2543814 3104261 54 255
1500834491.564590 34546624 1 2253226 2544020 93 274
1500834491.567424 34549438 0 2543806 3104237 44 217
1500834491.574741 34556577 0 2543815 3104279 50 243
1500834491.575935 34556855 1 2253240 2544050 101 285
1500834491.581719 34563716 0 2543800 3104276 33 225
1500834491.584906 34567084 1 2253224 2544082 80 298
1500834491.588832 34570855 0 2543823 3104257 53 194
1500834491.595264 34577313 1 2253244 2544125 94 320
1500834491.596567 34577994 0 2543793 3104255 22 180
1500834491.603092 34585133 0 2543780 3104256 9 170
1500834491.605430 34587543 1 2253264 2544146 107 320
1500834491.610174 34592273 0 2543786 3104217 15 123
1500834491.615616 34597772 1 2253273 2544182 109 334
1500834491.617173 34599412 0 2543775 3104233 4 131
1500834491.624475 34606551 0 2543779 3104247 8 136
1500834491.625892 34608001 1 2253302 2544223 130 352
1500834491.631579 34613690 0 2543815 3104281 42 160
1500834491.635925 34618230 1 2253288 2544239 109 345
1500834491.638792 34620830 0 2543785 3104312 12 180
1500834491.645993 34627969 0 2543815 3104368 40 222
1500834491.647182 34628460 1 2253299 2544241 113 326
1500834491.652883 34635108 0 2543841 3104372 62 212
1500834491.656325 34638689 1 2253280 2544263 89 327
1500834491.660112 34642247 0 2543830 3104396 48 222
1500834491.666911 34648919 1 2253297 2544290 100 332
1500834491.668283 34649387 0 2543825 3104414 41 225
1500834491.674304 34656526 0 2543841 3104419 54 216
1500834491.676986 34659148 1 2253303 2544302 100 323
1500834491.681358 34663665 0 2543828 3104398 39 183
1500834491.686972 34669379 1 2253306 2544341 97 340
1500834491.688467 34670804 0 2543824 3104403 33 177
1500834491.695596 34677944 0 2543806 3104364 15 130
1500834491.697208 34679610 1 2253318 2544374 103 350
1500834491.702730 34685083 0 2543806 3104319 15 80
1500834491.707461 34689840 1 2253328 2544400 106 353
1500834491.709860 34692222 0 2543789 3104308 -1 65
1500834491.717037 34699361 0 2543787 3104306 -2 60
1500834491.718313 34700070 1 2253361 2544434 131 363
1500834491.724106 34706500 0 2543786 3104316 -2 66
1500834491.727998 34710300 1 2253371 2544461 133 366
1500834491.731057 34713639 0 2543803 3104328 15 74
1500834491.738115 34720531 1 2253385 2544494 138 375
1500834491.739399 34720778 0 2543795 3104385 7 123
1500834491.745431 34727918 0 2543817 3104409 28 138
1500834491.748186 34730761 1 2253388 2544509 133 366
1500834491.752693 34735057 0 2543826 3104400 35 121
1500834491.758354 34740991 1 2253409 2544511 145 345
1500834491.759893 34742197 0 2543819 3104480 27 189
1500834491.766729 34749336 0 2543839 3104500 45 196
1500834491.768539 34751221 1 2253386 2544525 115 337
1500834491.773864 34756476 0 2543887 3104505 88 189
1500834491.778860 34761451 1 2253364 2544490 88 284
1500834491.780921 34763615 0 2543841 3104530 40 201
1500834491.788162 34770755 0 2543837 3104538 34 196
1500834491.789534 34771683 1 2253379 2544488 97 265
1500834491.795323 34777895 0 2543860 3104554 54 199
1500834491.801049 34781913 1 2253333 2544475 48 237
1500834491.802727 34785034 0 2543834 3104498 27 135
1500834491.809805 34792144 1 2253321 2544452 34 201
1500834491.810820 34792174 0 2543851 3104529 42 156
1500834491.816623 34799313 0 2543835 3104528 25 146
1500834491.819661 34802374 1 2253325 2544428 36 166
1500834491.823811 34806453 0 2543862 3104462 49 75
1500834491.829784 34812606 1 2253330 2544411 39 140
1500834491.831254 34813592 0 2543839 3104470 25 78
1500834491.837860 34820732 0 2543804 3104444 -9 49
1500834491.839985 34822836 1 2253314 2544406 22 127
1500834491.845046 34827871 0 2543847 3104400 32 5
1500834491.850150 34833067 1 2253299 2544415 7 128
1500834491.852161 34835011 0 2543780 3104318 -32 -72
1500834491.859193 34842150 0 2543753 3104229 -55 -150
1500834491.860677 34843296 1 2253307 2544341 15 51
1500834491.866516 34849290 0 2543741 3104121 -62 -241
1500834491.870705 34853526 1 2253269 2544272 -21 -16
1500834491.873621 34856429 0 2543667 3104011 -127 -329
1500834491.880720 34863567 0 2543645 3103911 -139 -402
1500834491.882168 34863756 1 2253250 2544217 -37 -66
1500834491.887844 34870707 0 2543606 3103790 -166 -490
1500834491.891086 34873986 1 2253238 2544154 -45 -120
1500834491.895059 34877845 0 2543621 3103671 -141 -570
1500834491.901351 34884215 1 2253198 2544059 -79 -201
1500834491.902701 34884984 0 2543556 3103556 -193 -642
1500834491.909100 34892123 0 2543478 3103428 -254 -721
1500834491.911333 34894444 1 2253168 2543987 -102 -255
1500834491.916373 34899262 0 2543496 3103294 -221 -801
1500834491.921593 34904674 1 2253134 2543873 -127 -345
1500834491.923315 34906401 0 2543448 3103230 -252 -810
1500834491.930528 34913541 0 2543421 3103147 -261 -837
1500834491.931996 34914904 1 2253099 2543807 -151 -385
1500834491.937756 34920681 0 2543392 3103078 -271 -849
1500834491.941969 34925135 1 2253057 2543735 -180 -428
1500834491.944761 34927821 0 2543374 3103019 -270 -851
1500834491.951935 34934961 0 2543359 3102995 -267 -820
1500834491.953432 34935365 1 2253040 2543663 -184 -468
1500834491.959046 34942101 0 2543371 3103018 -239 -747
1500834491.962468 34945596 1 2253040 2543624 -172 -475
1500834491.966265 34949241 0 2543409 3102997 -188 -720
1500834491.972654 34955826 1 2253019 2543593 -180 -474
1500834491.974105 34956381 0 2543385 3103002 -198 -670
1500834491.980343 34963520 0 2543360 3103046 -209 -586
1500834491.983020 34966056 1 2253011 2543565 -176 -470
1500834491.987595 34970660 0 2543380 3103045 -177 -550
1500834491.993082 34976286 1 2253012 2543534 -164 -469
1500834491.994673 34977799 0 2543387 3103106 -159 -458
1500834492.001604 34984939 0 2543396 3103129 -140 -407
1500834492.003191 34986514 1 2252994 2543524 -170 -449
1500834492.008966 34992078 0 2543430 3103138 -99 -373
1500834492.013370 34996744 1 2253017 2543511 -137 -433
1500834492.016124 34999216 0 2543410 3103163 -111 -326
1500834492.023174 35006356 0 2543399 3103183 -114 -286
1500834492.024600 35006973 1 2253024 2543510 -121 -406
1500834492.030204 35013495 0 2543421 3103183 -86 -268
1500834492.033881 35017202 1 2253011 2543526 -125 -365
1500834492.037250 35020634 0 2543416 3103183 -85 -251
1500834492.044085 35027430 1 2252999 2543517 -128 -350
1500834492.045609 35027773 0 2543417 3103193 -78 -225
1500834492.051745 35034912 0 2543433 3103204 -58 -200
1500834492.054376 35037659 1 2253024 2543527 -96 -318
1500834492.058740 35042051 0 2543440 3103215 -47 -177
1500834492.064520 35047888 1 2253005 2543499 -107 -324
1500834492.065857 35049190 0 2543426 3103271 -57 -113
1500834492.072991 35056329 0 2543445 3103323 -35 -57
1500834492.074819 35058118 1 2253012 2543525 -93 -279
1500834492.079887 35063469 0 2543495 3103384 15 4
1500834492.084873 35068348 1 2253018 2543530 -81 -256
1500834492.086987 35070609 0 2543469 3103412 -10 30
1500834492.094103 35077748 0 2543486 3103459 7 73
1500834492.095559 35078578 1 2253006 2543535 -87 -235
1500834492.101294 35084887 0 2543504 3103476 24 85
1500834492.105269 35088807 1 2253013 2543555 -75 -201
1500834492.108472 35092026 0 2543498 3103483 17 87
1500834492.115428 35099036 1 2253012 2543583 -71 -162
1500834492.116831 35099165 0 2543502 3103525 20 121
1500834492.122775 35106304 0 2543516 3103534 32 122
1500834492.125707 35109264 1 2253027 2543585 -52 -150
1500834492.129960 35113442 0 2543518 3103511 32 93
1500834492.135852 35119493 1 2253037 2543631 -39 -97
1500834492.137343 35120582 0 2543499 3103520 13 96
1500834492.144178 35127721 0 2543506 3103520 19 90
1500834492.146030 35129723 1 2253055 2543613 -19 -107
1500834492.151054 35134860 0 2543539 3103508 49 74
1500834492.156248 35139953 1 2253036 2543623 -35 -90
1500834492.158323 35142000 0 2543479 3103494 -10 57
1500834492.165497 35149140 0 2543470 3103485 -17 45
1500834492.167016 35150183 1 2253022 2543600 -45 -105
1500834492.172615 35156279 0 2543472 3103472 -14 30
1500834492.176683 35160413 1 2253026 2543609 -38 -90
1500834492.179663 35163419 0 2543467 3103436 -17 -5
1500834492.186867 35170558 0 2543476 3103469 -7 27
1500834492.188198 35170642 1 2253022 2543602 -39 -90
1500834492.193862 35177698 0 2543478 3103455 -4 13
1500834492.196979 35180872 1 2253033 2543618 -26 -69
1500834492.201010 35184837 0 2543516 3103468 32 25
1500834492.207414 35191102 1 2253039 2543645 -18 -39
1500834492.208502 35191977 0 2543473 3103507 -10 60
1500834492.215176 35199116 0 2543466 3103539 -15 87
1500834492.217384 35201332 1 2253038 2543666 -17 -16
1500834492.222353 35206256 0 2543534 3103559 50 101
1500834492.227605 35211563 1 2253048 2543700 -6 17
1500834492.229464 35213395 0 2543520 3103643 34 174
1500834492.236630 35220535 0 2543509 3103685 22 203
1500834492.237931 35221795 1 2253073 2543721 18 36
1500834492.243772 35227675 0 2543561 3103733 70 236
1500834492.248055 35232026 1 2253050 2543734 -4 46
1500834492.250863 35234815 0 2543554 3103767 60 254
1500834492.257997 35241954 0 2543558 3103827 60 295
1500834492.259336 35242256 1 2253070 2543743 15 52
1500834492.265045 35249094 0 2543578 3103825 75 275
1500834492.268257 35252486 1 2253075 2543762 19 67
1500834492.272313 35256234 0 2543622 3103821 112 255
1500834492.278588 35262717 1 2253064 2543771 8 72
1500834492.280125 35263373 0 2543572 3103793 59 213
1500834492.286411 35270513 0 2543573 3103772 57 180
1500834492.288654 35272948 1 2253082 2543791 25 87
1500834492.293581 35277652 0 2543565 3103739 46 138
1500834492.299034 35283178 1 2253086 2543809 28 99
1500834492.300577 35284791 0 2543526 3103751 7 141
1500834492.307656 35291931 0 2543519 3103722 0 105
1500834492.309064 35293408 1 2253116 2543866 55 147
1500834492.314884 35299070 0 2543546 3103740 26 116
1500834492.319386 35303638 1 2253105 2543898 42 168
1500834492.321882 35306210 0 2543527 3103797 7 163
1500834492.329174 35313349 0 2543559 3103848 37 201
1500834492.330491 35313869 1 2253134 2543910 67 169
1500834492.336159 35320488 0 2543562 3103876 38 215
1500834492.339676 35324098 1 2253117 2543938 47 185
1500834492.343319 35327628 0 2543580 3103936 53 258
1500834492.350022 35334327 1 2253120 2543938 47 174
1500834492.351478 35334767 0 2543575 3103976 45 280
1500834492.357546 35341906 0 2543598 3104023 64 307
1500834492.360100 35344556 1 2253120 2543953 45 178
1500834492.364660 35349045 0 2543601 3103994 63 261
1500834492.370233 35354787 1 2253118 2543977 41 190
1500834492.371993 35356184 0 2543602 3104023 60 272
1500834492.378990 35363323 0 2543596 3104003 51 237
1500834492.380524 35365016 1 2253170 2544034 88 232
1500834492.386190 35370462 0 2543618 3103951 69 174
1500834492.390711 35375246 1 2253164 2544048 77 231
1500834492.393093 35377601 0 2543573 3103958 23 170
1500834492.400285 35384740 0 2543567 3103951 16 153
1500834492.401479 35385476 1 2253170 2544066 78 234
1500834492.407404 35391879 0 2543568 3103940 16 134
1500834492.411127 35395706 1 2253164 2544114 68 265
1500834492.414532 35399018 0 2543567 3103945 15 131
1500834492.421355 35405936 1 2253174 2544130 74 264
1500834492.422703 35406157 0 2543566 3103968 14 145
1500834492.431221 35413295 0 2543592 3103987 38 154
1500834492.432403 35416166 1 2253171 2544139 67 256
1500834492.435810 35420433 0 2543596 3103987 40 145
1500834492.441911 35426396 1 2253173 2544155 65 255
1500834492.443199 35427572 0 2543588 3104022 30 169
1500834492.450085 35434711 0 2543601 3104063 41 197
1500834492.451915 35436626 1 2253180 2544210 68 291
1500834492.457244 35441850 0 2543634 3104084 70 205
1500834492.462236 35446855 1 2253221 2544242 103 303
1500834492.464387 35448989 0 2543621 3104135 54 240
1500834492.471668 35456128 0 2543644 3104144 73 234
1500834492.473019 35457085 1 2253229 2544268 105 309
1500834492.478533 35463266 0 2543637 3104178 62 252
1500834492.482638 35467315 1 2253224 2544269 94 291
1500834492.485750 35470405 0 2543638 3104158 60 218
1500834492.492866 35477543 0 2543657 3104188 75 233
1500834492.494332 35477546 1 2253242 2544290 105 293
1500834492.499716 35484682 0 2543653 3104192 67 223
1500834492.503079 35487774 1 2253229 2544298 87 283
1500834492.506966 35491820 0 2543671 3104185 80 203
1500834492.513219 35498004 1 2253235 2544319 88 285
1500834492.514620 35498958 0 2543660 3104228 65 231
1500834492.521246 35506095 0 2543649 3104235 51 224
1500834492.523322 35508232 1 2253219 2544285 68 236
1500834492.528435 35513234 0 2543724 3104237 119 212
1500834492.533525 35518461 1 2253205 2544266 51 204
1500834492.535499 35520373 0 2543635 3104263 29 224
1500834492.542748 35527512 0 2543643 3104222 35 172
1500834492.544100 35528690 1 2253213 2544247 56 174
1500834492.549732 35534650 0 2543656 3104175 45 118
1500834492.553917 35538920 1 2253190 2544205 31 124
1500834492.556747 35541789 0 2543611 3104080 0 22
1500834492.564009 35548928 0 2543577 3104017 -31 -38
1500834492.565328 35549149 1 2253189 2544176 29 90
1500834492.571086 35556066 0 2543545 3103890 -59 -154
1500834492.574190 35559378 1 2253165 2544102 5 15
1500834492.578208 35563204 0 2543547 3103767 -53 -259
1500834492.584456 35569607 1 2253133 2544028 -25 -55
1500834492.585897 35570342 0 2543468 3103654 -123 -348
1500834492.592507 35577481 0 2543430 3103521 -150 -450
1500834492.594686 35579836 1 2253116 2543957 -39 -118
1500834492.599567 35584620 0 2543434 3103419 -136 -517
1500834492.605035 35590067 1 2253069 2543884 -80 -179
1500834492.606737 35591759 0 2543411 3103358 -149 -541
1500834492.613989 35598899 0 2543357 3103286 -190 -574
1500834492.615127 35600298 1 2253065 2543797 -78 -249
1500834492.621038 35606038 0 2543363 3103239 -172 -582
1500834492.625369 35610527 1 2253013 2543708 -121 -316
1500834492.628119 35613177 0 2543346 3103190 -177 -591
1500834492.635336 35620316 0 2543317 3103177 -193 -566
1500834492.636496 35620757 1 2252996 2543628 -129 -371
1500834492.642261 35627455 0 2543310 3103142 -187 -563
1500834492.645671 35630987 1 2252956 2543561 -158 -410
1500834492.649503 35634593 0 2543314 3103102 -171 -565
1500834492.655963 35641216 1 2252940 2543506 -163 -435
1500834492.657539 35641731 0 2543298 3103097 -175 -534
1500834492.663599 35648870 0 2543277 3103063 -183 -532
1500834492.666102 35651446 1 2252921 2543466 -170 -445
1500834492.670658 35656009 0 2543296 3103025 -153 -534
1500834492.676395 35661676 1 2252890 2543435 -188 -446
1500834492.677863 35663147 0 2543280 3103034 -158 -492
1500834492.684986 35670286 0 2543277 3103035 -150 -460
1500834492.686496 35671905 1 2252913 2543417 -154 -435
1500834492.692069 35677424 0 2543295 3103042 -123 -424
1500834492.696739 35682135 1 2252911 2543404 -146 -420
1500834492.699411 35684563 0 2543280 3103082 -129 -360
1500834492.706636 35691702 0 2543290 3103095 -111 -325
1500834492.707712 35692365 1 2252904 2543369 -143 -426
1500834492.713452 35698841 0 2543315 3103105 -80 -295
1500834492.717102 35702595 1 2252900 2543353 -137 -414
1500834492.720590 35705979 0 2543302 3103135 -87 -248
1500834492.727381 35712825 1 2252897 2543344 -131 -396
1500834492.728889 35713118 0 2543287 3103147 -95 -221
1500834492.734716 35720256 0 2543301 3103201 -75 -156
1500834492.737601 35723055 1 2252888 2543340 -131 -375
1500834492.741949 35727394 0 2543311 3103185 -60 -161
1500834492.747686 35733284 1 2252912 2543336 -100 -355
1500834492.749173 35734532 0 2543323 3103248 -45 -91
1500834492.756138 35741670 0 2543341 3103286 -25 -49
1500834492.757857 35743514 1 2252908 2543357 -97 -313
1500834492.763140 35748808 0 2543378 3103324 12 -10
1500834492.768045 35753744 1 2252901 2543364 -97 -286
1500834492.770238 35755947 0 2543375 3103348 9 14
1500834492.777255 35763085 0 2543385 3103382 18 45
1500834492.778844 35763974 1 2252925 2543366 -68 -266
1500834492.784445 35770223 0 2543379 3103398 12 58
1500834492.788636 35774202 1 2252919 2543371 -69 -244
1500834492.791694 35777361 0 2543380 3103367 13 26
1500834492.798853 35784431 1 2252929 2543375 -55 -225
1500834492.800871 35784499 0 2543400 3103446 31 99
1500834492.806067 35791638 0 2543400 3103464 30 110
1500834492.809005 35794661 1 2252916 2543375 -63 -210
1500834492.813034 35798776 0 2543436 3103464 62 104
1500834492.819348 35804890 1 2252919 2543389 -56 -183
1500834492.820541 35805914 0 2543407 3103519 31 150
1500834492.827096 35813053 0 2543420 3103574 42 193
1500834492.829055 35815120 1 2252912 2543400 -59 -161
1500834492.834380 35820192 0 2543464 3103591 81 197
1500834492.839424 35825349 1 2252923 2543400 -45 -150
1500834492.841393 35827330 0 2543436 3103598 50 192
1500834492.848611 35834469 0 2543438 3103617 49 198
1500834492.849892 35835579 1 2252911 2543402 -53 -138
1500834492.855592 35841606 0 2543457 3103632 64 200
1500834492.859688 35845808 1 2252902 2543378 -58 -151
1500834492.862847 35848745 0 2543434 3103588 39 147
1500834492.870101 35855883 0 2543458 3103632 60 180
1500834492.871260 35856039 1 2252905 2543390 -51 -130
1500834492.877241 35863022 0 2543454 3103613 53 151
1500834492.880310 35866268 1 2252918 2543416 -35 -97
1500834492.884387 35870161 0 2543500 3103610 93 139
1500834492.890509 35876497 1 2252909 2543424 -41 -83
1500834492.891774 35877299 0 2543451 3103622 42 142
1500834492.898396 35884437 0 2543467 3103630 55 141
1500834492.900561 35886726 1 2252924 2543445 -24 -58
1500834492.905391 35891576 0 2543494 3103613 77 117
1500834492.910731 35896956 1 2252913 2543461 -32 -39
1500834492.912507 35898714 0 2543458 3103621 39 118
1500834492.919605 35905851 0 2543453 3103636 32 125
1500834492.921095 35907185 1 2252933 2543465 -11 -32
1500834492.926747 35912989 0 2543485 3103654 60 135
1500834492.931190 35917414 1 2252928 2543471 -15 -24
1500834492.933836 35920127 0 2543444 3103665 18 137
1500834492.941221 35927266 0 2543435 3103690 9 152
1500834492.942316 35927643 1 2252916 2543482 -25 -12
1500834492.948230 35934404 0 2543438 3103697 12 150
1500834492.951680 35937871 1 2252933 2543500 -7 6
1500834492.955344 35941543 0 2543495 3103719 65 162
1500834492.962405 35948101 1 2252958 2543528 17 32
1500834492.963575 35948682 0 2543464 3103730 32 163
1500834492.969604 35955821 0 2543473 3103764 39 185
1500834492.972035 35958330 1 2252958 2543548 16 49
1500834492.976766 35962959 0 2543486 3103769 49 179
1500834492.982410 35968559 1 2252956 2543555 14 53
1500834492.983787 35970097 0 2543481 3103768 42 167
1500834492.991181 35977236 0 2543489 3103788 47 176
1500834492.992354 35978788 1 2252979 2543599 35 91
1500834492.998172 35984375 0 2543500 3103773 55 151
1500834493.002701 35989019 1 2252972 2543616 27 102
1500834493.005055 35991514 0 2543493 3103795 45 163
1500834493.012422 35998653 0 2543499 3103816 48 173
1500834493.013752 35999249 1 2252989 2543651 42 129
1500834493.019391 36005792 0 2543478 3103816 26 163
1500834493.022912 36009479 1 2252996 2543702 46 169
1500834493.026487 36012931 0 2543502 3103846 47 181
1500834493.033174 36019709 1 2253013 2543724 60 180
1500834493.034704 36020070 0 2543490 3103852 33 176
1500834493.040717 36027209 0 2543502 3103900 43 210
1500834493.043479 36029938 1 2253014 2543769 58 211
1500834493.047972 36034348 0 2543531 3103914 68 210
1500834493.053685 36040167 1 2253009 2543766 50 195
1500834493.054928 36041487 0 2543532 3103956 65 237
1500834493.062372 36048625 0 2543521 3103986 51 251
1500834493.063835 36050396 1 2253042 2543800 78 215
1500834493.069275 36055764 0 2543553 3104027 78 274
1500834493.073994 36060625 1 2253019 2543811 52 212
1500834493.076353 36062903 0 2543558 3104073 78 300
1500834493.083409 36070043 0 2543551 3104076 67 285
1500834493.084907 36070854 1 2253052 2543828 80 215
1500834493.090645 36077182 0 2543558 3104065 70 257
1500834493.094414 36081084 1 2253060 2543875 83 246
1500834493.097722 36084321 0 2543521 3104023 31 202
1500834493.104674 36091313 1 2253072 2543899 90 254
1500834493.106037 36091459 0 2543519 3104010 28 178
1500834493.111888 36098597 0 2543534 3104015 41 172
1500834493.114823 36101542 1 2253092 2543935 104 272
1500834493.118900 36105737 0 2543530 3103995 35 143
1500834493.125075 36111772 1 2253102 2543964 107 283
1500834493.126560 36112875 0 2543526 3104037 30 174
1500834493.133191 36120015 0 2543542 3104044 44 170
1500834493.135096 36122002 1 2253128 2544011 125 310
1500834493.140361 36127153 0 2543577 3104065 75 180
1500834493.145318 36132230 1 2253133 2544040 122 318
1500834493.147326 36134292 0 2543543 3104116 39 217
1500834493.154631 36141430 0 2543561 3104128 54 215
1500834493.155862 36142460 1 2253139 2544053 120 311
1500834493.161804 36148568 0 2543559 3104154 49 226
1500834493.165821 36152690 1 2253127 2544054 102 293
1500834493.168951 36155705 0 2543561 3104115 48 176
1500834493.176185 36162842 0 2543558 3104171 43 218
1500834493.177283 36162918 1 2253138 2544059 106 280
1500834493.183094 36169980 0 2543567 3104140 49 176
1500834493.186460 36173146 1 2253117 2544071 80 274
1500834493.190331 36177118 0 2543588 3104103 66 131
1500834493.196446 36183374 1 2253140 2544092 97 277
1500834493.197803 36184255 0 2543552 3104171 29 187
1500834493.207223 36191394 0 2543563 3104161 38 166
1500834493.208434 36193604 1 2253122 2544064 75 234
1500834493.211501 36198532 0 2543607 3104138 77 135
1500834493.216755 36203833 1 2253131 2544086 79 240
1500834493.218609 36205669 0 2543571 3104176 39 163
1500834493.225673 36212807 0 2543559 3104170 26 148
1500834493.227087 36214061 1 2253144 2544121 87 258
1500834493.232874 36219945 0 2543571 3104199 36 166
1500834493.237132 36224290 1 2253149 2544143 87 263
1500834493.240100 36227083 0 2543560 3104185 24 143
1500834493.247162 36234221 0 2543550 3104219 14 166
1500834493.248550 36234520 1 2253152 2544153 85 256
1500834493.254205 36241359 0 2543565 3104222 28 159
1500834493.257591 36244749 1 2253162 2544190 90 275
1500834493.261366 36248497 0 2543621 3104259 79 184
1500834493.267733 36254977 1 2253142 2544203 66 270
1500834493.269204 36255635 0 2543573 3104281 30 194
1500834493.275641 36262773 0 2543577 3104315 32 214
1500834493.277982 36265206 1 2253146 2544196 66 247
1500834493.282873 36269911 0 2543576 3104343 30 227
1500834493.288098 36275435 1 2253155 2544215 71 250
1500834493.289804 36277049 0 2543583 3104346 35 216
1500834493.297171 36284187 0 2543572 3104383 23 238
1500834493.298380 36285663 1 2253150 2544207 62 227
1500834493.303972 36291325 0 2543581 3104382 30 223
1500834493.308408 36295890 1 2253146 2544175 55 183
1500834493.311193 36298463 0 2543588 3104372 35 200
1500834493.318414 36305600 0 2543577 3104314 23 134
1500834493.319687 36306118 1 2253146 2544148 52 147
1500834493.325281 36312738 0 2543550 3104248 -3 64
1500834493.328927 36316348 1 2253116 2544097 21 90
1500834493.332604 36319876 0 2543525 3104105 -26 -74
1500834493.339048 36326577 1 2253093 2544039 -1 30
1500834493.340543 36327014 0 2543481 3104016 -65 -152
1500834493.346823 36334153 0 2543439 3103884 -100 -266
1500834493.349299 36336806 1 2253062 2543969 -30 -37
1500834493.353857 36341291 0 2543399 3103721 -131 -402
1500834493.359517 36347034 1 2253029 2543894 -59 -105
1500834493.361018 36348430 0 2543343 3103610 -175 -480
1500834493.368118 36355568 0 2543300 3103503 -204 -550
1500834493.369619 36357263 1 2253011 2543810 -72 -177
1500834493.375223 36362707 0 2543314 3103402 -178 -610
1500834493.379890 36367492 1 2252985 2543710 -91 -259
1500834493.382255 36369845 0 2543256 3103332 -221 -637
1500834493.389600 36376984 0 2543263 3103271 -200 -654
1500834493.391154 36377721 1 2252962 2543659 -106 -290
1500834493.396637 36384123 0 2543240 3103229 -209 -652
1500834493.400437 36387950 1 2252945 2543584 -115 -342
1500834493.403802 36391262 0 2543224 3103142 -210 -692
1500834493.410697 36398180 1 2252921 2543523 -130 -377
1500834493.412214 36398402 0 2543194 3103095 -225 -692
1500834493.418068 36405540 0 2543177 3103060 -226 -681
1500834493.420904 36408409 1 2252904 2543454 -137 -418
1500834493.425076 36412679 0 2543186 3102970 -203 -722
1500834493.430889 36418639 1 2252874 2543387 -156 -454
1500834493.432547 36419818 0 2543186 3102991 -190 -657
1500834493.439381 36426958 0 2543158 3103013 -204 -595
1500834493.441315 36428870 1 2252867 2543337 -152 -472
1500834493.446411 36434097 0 2543192 3103001 -159 -569
1500834493.451257 36439100 1 2252849 2543294 -159 -482
1500834493.453506 36441236 0 2543158 3103018 -180 -517
1500834493.461093 36448374 0 2543168 3102992 -159 -509
1500834493.462355 36449329 1 2252827 2543292 -169 -453
1500834493.467791 36455513 0 2543167 3103006 -150 -464
1500834493.471814 36459558 1 2252835 2543280 -150 -435
1500834493.474844 36462652 0 2543156 3102941 -150 -495
1500834493.482083 36469791 0 2543150 3103003 -146 -405
1500834493.483454 36469788 1 2252848 2543286 -128 -402
1500834493.489005 36476930 0 2543140 3102986 -146 -395
1500834493.492129 36480017 1 2252839 2543286 -128 -376
1500834493.496277 36484069 0 2543179 3102940 -100 -413
1500834493.502234 36490247 1 2252819 2543264 -138 -373
1500834493.503755 36491208 0 2543142 3102976 -128 -353
1500834493.510585 36498347 0 2543161 3102990 -102 -317
1500834493.512651 36500477 1 2252825 2543278 -123 -336
1500834493.517498 36505485 0 2543207 3102998 -52 -289
1500834493.522679 36510706 1 2252809 2543250 -130 -341
1500834493.524575 36512624 0 2543158 3103050 -94 -222
1500834493.531836 36519763 0 2543159 3103079 -87 -180
1500834493.533144 36520937 1 2252831 2543250 -101 -319
1500834493.538847 36526902 0 2543199 3103088 -44 -160
1500834493.543004 36531166 1 2252826 2543258 -99 -291
1500834493.545969 36534041 0 2543180 3103100 -59 -138
1500834493.553005 36541181 0 2543196 3103148 -40 -84
1500834493.554433 36541394 1 2252817 2543273 -101 -258
1500834493.560125 36548319 0 2543184 3103164 -48 -63
1500834493.563546 36551622 1 2252830 2543260 -82 -254
1500834493.567374 36555457 0 2543241 3103200 9 -25
1500834493.573830 36561850 1 2252830 2543283 -76 -216
1500834493.575328 36562596 0 2543200 3103209 -30 -15
1500834493.581661 36569735 0 2543204 3103211 -24 -12
1500834493.583983 36572079 1 2252849 2543312 -53 -175
1500834493.588793 36576873 0 2543256 3103220 27 -2
1500834493.594226 36582308 1 2252850 2543327 -48 -150
1500834493.595905 36584011 0 2543228 3103271 0 46
1500834493.602970 36591150 0 2543229 3103285 1 57
1500834493.604094 36592537 1 2252897 2543336 0 -132
1500834493.609970 36598288 0 2543247 3103295 18 63
1500834493.614571 36602767 1 2252878 2543342 -17 -118
1500834493.617143 36605426 0 2543239 3103339 10 101
1500834493.624253 36612565 0 2543246 3103339 16 95
1500834493.625644 36612997 1 2252876 2543337 -17 -115
1500834493.631364 36619703 0 2543263 3103362 31 111
1500834493.634707 36623226 1 2252875 2543359 -16 -87
1500834493.638508 36626842 0 2543283 3103376 48 118
1500834493.645056 36633456 1 2252878 2543351 -12 -89
1500834493.646714 36633981 0 2543277 3103385 40 120
1500834493.652792 36641120 0 2543285 3103384 45 112
1500834493.655172 36643685 1 2252873 2543339 -15 -94
1500834493.659916 36648258 0 2543261 3103376 20 98
1500834493.665463 36653914 1 2252864 2543337 -22 -90
1500834493.666998 36655396 0 2543256 3103380 15 96
1500834493.674105 36662535 0 2543273 3103406 30 115
1500834493.675680 36664142 1 2252883 2543357 -2 -65
1500834493.681326 36669673 0 2543263 3103403 19 105
1500834493.685968 36674371 1 2252870 2543360 -14 -58
1500834493.688231 36676811 0 2543281 3103414 35 109
1500834493.695624 36683950 0 2543274 3103432 27 120
1500834493.696936 36684600 1 2252869 2543349 -14 -64
1500834493.702705 36691089 0 2543282 3103463 33 142
1500834493.706216 36694830 1 2252862 2543357 -19 -52
1500834493.709727 36698227 0 2543296 3103474 45 144
1500834493.716425 36705058 1 2252872 2543347 -8 -58
1500834493.717733 36705366 0 2543282 3103486 30 147
1500834493.723916 36712505 0 2543298 3103483 44 135
1500834493.726523 36715287 1 2252875 2543367 -4 -35
1500834493.731124 36719644 0 2543307 3103463 50 108
1500834493.736947 36725515 1 2252864 2543369 -14 -30
1500834493.738388 36726782 0 2543278 3103470 20 108
1500834493.745283 36733921 0 2543294 3103496 34 126
1500834493.747066 36735745 1 2252864 2543408 -13 9
1500834493.752329 36741059 0 2543310 3103481 47 105
1500834493.757358 36745974 1 2252877 2543405 0 6
1500834493.759378 36748198 0 2543280 3103492 16 109
1500834493.766682 36755337 0 2543302 3103517 36 126
1500834493.767906 36756203 1 2252887 2543434 10 33
1500834493.773703 36762476 0 2543299 3103563 31 162
1500834493.777668 36766431 1 2252887 2543441 10 38
1500834493.780919 36769615 0 2543298 3103576 29 165
1500834493.787904 36776661 1 2252879 2543456 2 50
1500834493.789115 36776754 0 2543318 3103625 46 201
1500834493.795160 36783894 0 2543339 3103675 63 236
1500834493.797926 36786889 1 2252883 2543470 6 60
1500834493.802578 36791033 0 2543360 3103670 79 217
1500834493.808577 36797119 1 2252894 2543506 16 90
1500834493.809752 36798172 0 2543348 3103711 63 242
1500834493.816423 36805311 0 2543347 3103730 59 245
1500834493.818249 36807348 1 2252923 2543548 43 124
1500834493.823445 36812450 0 2543400 3103734 105 234
1500834493.828484 36817577 1 2252927 2543592 45 158
1500834493.830617 36819588 0 2543350 3103745 52 230
1500834493.837857 36826727 0 2543339 3103776 39 245
1500834493.839120 36827806 1 2252951 2543633 65 187
1500834493.844894 36833866 0 2543361 3103774 58 228
1500834493.849045 36838036 1 2252950 2543659 60 200
1500834493.851892 36841005 0 2543361 3103751 55 193
1500834493.859171 36848144 0 2543353 3103810 45 237
1500834493.860418 36848265 1 2252973 2543676 78 204
1500834493.866167 36855282 0 2543354 3103821 44 233
1500834493.869392 36858493 1 2252958 2543648 60 165
1500834493.873315 36862421 0 2543398 3103820 83 218
1500834493.879630 36868721 1 2252958 2543686 57 191
1500834493.881075 36869559 0 2543349 3103862 32 244
1500834493.887586 36876698 0 2543367 3103859 47 226
1500834493.889889 36878949 1 2252965 2543685 60 179
1500834493.894708 36883836 0 2543428 3103852 102 206
1500834493.899984 36889178 1 2252957 2543704 49 186
1500834493.901791 36890975 0 2543359 3103882 31 222
1500834493.908944 36898113 0 2543374 3103893 44 219
1500834493.910295 36899407 1 2252978 2543701 66 172
1500834493.916074 36905252 0 2543394 3103928 60 239
1500834493.920240 36909636 1 2252977 2543732 61 191
1500834493.923133 36912390 0 2543382 3103940 45 236
1500834493.930546 36919528 0 2543394 3103951 54 232
1500834493.931767 36919865 1 2252968 2543740 49 187
1500834493.937415 36926667 0 2543385 3103968 43 234
1500834493.940778 36930094 1 2252996 2543804 73 236
1500834493.944682 36933805 0 2543422 3103981 75 232
1500834493.951014 36940324 1 2252986 2543792 60 210
1500834493.952391 36940944 0 2543394 3103993 45 229
1500834493.959039 36948082 0 2543404 3104015 52 236
1500834493.961193 36950553 1 2252987 2543831 58 234
1500834493.965952 36955221 0 2543420 3104009 64 216
1500834493.971385 36960783 1 2252993 2543820 60 210
1500834493.972916 36962359 0 2543416 3104049 57 240
1500834493.980068 36969497 0 2543416 3104071 54 246
1500834493.981660 36971012 1 2253002 2543826 65 203
1500834493.987271 36976635 0 2543432 3104084 66 243
1500834493.991857 36981242 1 2253013 2543875 72 237
1500834493.994399 36983773 0 2543420 3104105 51 248
1500834494.001556 36990912 0 2543414 3104125 43 252
1500834494.002986 36991471 1 2253010 2543883 65 230
1500834494.008663 36998050 0 2543429 3104108 55 221
1500834494.012204 37001701 1 2253005 2543897 57 229
1500834494.015775 37005187 0 2543429 3104097 52 197
1500834494.022624 37011929 1 2252996 2543861 45 181
1500834494.023868 37012325 0 2543401 3104087 23 176
1500834494.030010 37019462 0 2543409 3104040 30 121
1500834494.032615 37022157 1 2252987 2543809 34 121
1500834494.037219 37026600 0 2543376 3103973 -2 51
1500834494.042924 37032386 1 2252962 2543748 9 57
1500834494.044280 37033738 0 2543343 3103919 -32 -2
1500834494.051406 37040876 0 2543321 3103825 -50 -90
1500834494.052998 37042616 1 2252934 2543685 -17 -5
1500834494.058620 37048014 0 2543302 3103718 -64 -184
1500834494.063317 37052847 1 2252898 2543629 -49 -57
1500834494.065576 37055153 0 2543244 3103586 -114 -296
1500834494.072818 37062291 0 2543190 3103475 -157 -381
1500834494.074028 37063077 1 2252892 2543540 -51 -136
1500834494.079908 37069431 0 2543185 3103347 -151 -477
1500834494.083556 37073306 1 2252850 2543474 -87 -189
1500834494.087139 37076569 0 2543123 3103202 -199 -583
1500834494.094026 37083536 1 2252830 2543394 -100 -252
1500834494.095451 37083708 0 2543103 3103095 -205 -646
1500834494.101298 37090847 0 2543064 3103033 -228 -663
1500834494.104121 37093765 1 2252812 2543331 -110 -295
1500834494.108197 37097985 0 2543078 3102942 -200 -706
1500834494.114337 37103994 1 2252784 2543268 -129 -335
1500834494.115785 37105122 0 2543045 3102936 -218 -667
1500834494.122414 37112261 0 2543041 3102909 -208 -650
1500834494.124356 37114223 1 2252765 2543197 -138 -380
1500834494.129630 37119399 0 2543055 3102889 -181 -628
1500834494.134575 37124452 1 2252749 2543168 -144 -383
1500834494.136781 37126537 0 2543015 3102884 -207 -593
1500834494.143854 37133676 0 2543012 3102898 -196 -542
1500834494.145256 37134682 1 2252736 2543106 -147 -417
1500834494.150985 37140814 0 2543040 3102912 -157 -495
1500834494.155091 37144911 1 2252739 2543046 -135 -447
1500834494.158137 37147952 0 2543047 3102891 -140 -483
1500834494.165411 37155090 0 2543034 3102915 -143 -430
1500834494.166691 37155139 1 2252697 2543011 -165 -451
1500834494.172414 37162227 0 2543032 3102909 -135 -408
1500834494.175491 37165368 1 2252695 2542961 -156 -469
1500834494.179458 37169365 0 2543064 3102844 -96 -443
1500834494.185733 37175597 1 2252638 2542892 -199 -504
1500834494.187247 37176504 0 2543010 3102850 -140 -409
1500834494.193827 37183642 0 2543020 3102841 -121 -391
1500834494.195737 37185826 1 2252641 2542866 -183 -496
1500834494.200804 37190780 0 2543059 3102798 -76 -406
1500834494.205937 37196054 1 2252612 2542842 -198 -487
1500834494.208014 37197919 0 2543009 3102782 -118 -395
1500834494.215061 37205058 0 2543012 3102805 -107 -348
1500834494.216461 37206284 1 2252627 2542806 -171 -490
1500834494.222131 37212197 0 2543008 3102796 -104 -334
1500834494.226392 37216514 1 2252616 2542801 -170 -464
1500834494.229250 37219335 0 2543021 3102804 -85 -305
1500834494.236339 37226475 0 2543017 3102841 -83 -251
1500834494.237769 37226744 1 2252596 2542798 -178 -437
1500834494.243540 37233613 0 2543010 3102863 -84 -214
1500834494.246757 37236974 1 2252614 2542800 -150 -407
1500834494.250636 37240751 0 2543083 3102917 -10 -150
1500834494.257106 37247203 1 2252616 2542799 -138 -382
1500834494.258569 37247889 0 2543028 3102957 -60 -103
1500834494.264891 37255028 0 2543069 3103020 -17 -37
1500834494.267159 37257433 1 2252630 2542818 -116 -340
1500834494.271978 37262167 0 2543086 3103011 0 -43
1500834494.277326 37267662 1 2252625 2542856 -113 -283
1500834494.278993 37269305 0 2543069 3103063 -15 9
1500834494.286073 37276443 0 2543077 3103103 -6 46
1500834494.287567 37277891 1 2252658 2542851 -75 -270
1500834494.293276 37283581 0 2543088 3103118 5 58
1500834494.297874 37288121 1 2252633 2542875 -93 -230
1500834494.300327 37290720 0 2543100 3103145 16 80
1500834494.307694 37297858 0 2543091 3103140 7 71
1500834494.308817 37298351 1 2252658 2542909 -63 -183
1500834494.314677 37304996 0 2543090 3103152 6 78
1500834494.318176 37308581 1 2252646 2542918 -70 -163
1500834494.321528 37312134 0 2543083 3103138 0 60
1500834494.328505 37318811 1 2252653 2542939 -59 -133
1500834494.329840 37319274 0 2543103 3103147 19 65
1500834494.335970 37326412 0 2543104 3103130 19 45
1500834494.338496 37329040 1 2252662 2542957 -46 -107
1500834494.342916 37333551 0 2543091 3103135 6 47
1500834494.348730 37339271 1 2252664 2542944 -41 -112
1500834494.350243 37340689 0 2543110 3103164 24 72
1500834494.357361 37347828 0 2543107 3103177 20 80
1500834494.359018 37349502 1 2252654 2542948 -47 -101
1500834494.364359 37354966 0 2543106 3103190 18 88
1500834494.369149 37359732 1 2252673 2542976 -26 -68
1500834494.371485 37362104 0 2543100 3103205 12 97
1500834494.378919 37369242 0 2543105 3103204 16 90
1500834494.380232 37369961 1 2252670 2542979 -27 -60
1500834494.385812 37376381 0 2543121 3103210 30 90
1500834494.389510 37380191 1 2252655 2542984 -39 -51
1500834494.392853 37383519 0 2543093 3103203 2 78
1500834494.399837 37390420 1 2252667 2542989 -25 -43
1500834494.401187 37390657 0 2543091 3103219 0 89
1500834494.407191 37397796 0 2543096 3103199 5 65
1500834494.409946 37400650 1 2252687 2543025 -4 -6
1500834494.414234 37404935 0 2543106 3103147 15 13
1500834494.420138 37410880 1 2252688 2543076 -2 43
1500834494.421562 37412074 0 2543086 3103173 -4 37
1500834494.428417 37419212 0 2543081 3103156 -8 19
1500834494.430158 37421109 1 2252714 2543119 23 81
1500834494.435482 37426352 0 2543096 3103179 7 40
1500834494.440387 37431339 1 2252732 2543177 39 131
1500834494.442548 37433491 0 2543090 3103209 1 66
1500834494.450040 37440629 0 2543111 3103255 21 105
1500834494.451364 37441569 1 2252759 2543239 62 181
1500834494.456824 37447768 0 2543115 3103318 24 158
1500834494.460847 37451800 1 2252791 2543265 89 195
1500834494.464205 37454907 0 2543116 3103325 24 155
1500834494.471218 37462031 1 2252799 2543319 91 234
1500834494.472417 37462046 0 2543137 3103401 43 217
1500834494.478342 37469185 0 2543149 3103448 52 248
1500834494.481365 37472262 1 2252816 2543365 102 263
1500834494.485396 37476325 0 2543190 3103444 88 229
1500834494.491381 37482493 1 2252826 2543369 105 251
1500834494.492974 37483464 0 2543158 3103503 53 270
1500834494.499639 37490603 0 2543170 3103546 61 294
1500834494.501671 37492724 1 2252821 2543409 94 273
1500834494.506683 37497742 0 2543243 3103574 126 302
1500834494.511787 37502955 1 2252863 2543443 128 288
1500834494.513941 37504881 0 2543215 3103607 92 315
1500834494.520918 37512020 0 2543229 3103665 100 350
1500834494.522198 37513185 1 2252855 2543445 113 272
1500834494.528009 37519159 0 2543247 3103715 111 375
1500834494.532130 37523416 1 2252859 2543474 110 283
1500834494.535165 37526297 0 2543243 3103744 101 379
1500834494.542564 37533436 0 2543253 3103813 105 420
1500834494.543698 37533647 1 2252862 2543473 106 265
1500834494.549391 37540574 0 2543283 3103877 127 454
1500834494.552545 37543876 1 2252847 2543478 86 254
1500834494.556494 37547713 0 2543340 3103907 173 454
1500834494.562801 37554105 1 2252847 2543491 81 251
1500834494.564315 37554852 0 2543290 3103958 116 474
1500834494.570736 37561991 0 2543310 3103978 128 464
1500834494.573151 37564335 1 2252853 2543498 82 242
1500834494.577860 37569129 0 2543332 3103994 141 450
1500834494.583164 37574565 1 2252854 2543516 78 244
1500834494.584958 37576268 0 2543303 3103996 105 424
1500834494.592162 37583406 0 2543320 3103998 115 400
1500834494.593432 37584795 1 2252880 2543547 98 258
1500834494.599324 37590544 0 2543306 3104011 95 388
1500834494.603710 37595024 1 2252884 2543544 96 240
1500834494.606440 37597682 0 2543317 3104032 100 384
1500834494.613449 37604820 0 2543301 3104040 79 368
1500834494.614810 37605254 1 2252863 2543570 71 250
1500834494.620693 37611958 0 2543310 3104048 83 353
1500834494.624154 37615484 1 2252867 2543570 71 235
1500834494.627771 37619098 0 2543310 3104036 78 320
1500834494.634418 37625716 1 2252863 2543579 63 229
1500834494.635680 37626237 0 2543288 3104014 53 280
1500834494.642082 37633376 0 2543293 3104026 55 274
1500834494.644500 37635947 1 2252869 2543601 65 236
1500834494.649089 37640515 0 2543293 3104006 52 239
1500834494.654599 37646177 1 2252881 2543628 73 247
1500834494.656091 37647654 0 2543306 3104057 61 272
1500834494.663270 37654792 0 2543303 3104073 55 270
1500834494.664767 37656407 1 2252882 2543668 70 270
1500834494.670409 37661931 0 2543327 3104072 75 253
1500834494.674880 37666637 1 2252905 2543667 88 253
1500834494.677361 37669069 0 2543322 3104101 66 265
1500834494.684494 37676208 0 2543311 3104089 52 238
1500834494.685838 37676866 1 2252916 2543704 93 272
1500834494.691619 37683347 0 2543334 3104079 71 214
1500834494.695400 37687096 1 2252930 2543705 101 256
1500834494.698837 37690486 0 2543306 3104077 41 199
1500834494.705666 37697325 1 2252906 2543717 73 252
1500834494.707261 37697625 0 2543294 3104078 28 188
1500834494.713145 37704763 0 2543295 3104066 28 165
1500834494.715837 37707555 1 2252921 2543717 83 237
1500834494.720137 37711902 0 2543308 3104039 39 130
1500834494.725965 37717785 1 2252911 2543749 69 253
1500834494.727607 37719040 0 2543307 3104094 36 174
1500834494.734396 37726179 0 2543303 3104104 30 173
1500834494.736075 37728015 1 2252912 2543769 66 256
1500834494.741658 37733318 0 2543326 3104104 50 163
1500834494.746504 37738245 1 2252926 2543802 75 271
1500834494.748687 37740457 0 2543322 3104108 44 157
1500834494.755772 37747596 0 2543316 3104150 36 187
1500834494.757146 37748475 1 2252954 2543849 97 299
1500834494.763010 37754734 0 2543314 3104191 32 214
1500834494.766767 37758705 1 2252966 2543903 103 331
1500834494.769948 37761872 0 2543325 3104162 41 174
1500834494.777217 37768935 1 2252993 2543923 122 330
1500834494.778652 37769011 0 2543324 3104208 38 207
1500834494.784203 37776149 0 2543312 3104201 25 188
1500834494.787146 37779164 1 2253005 2543965 126 349
1500834494.791273 37783287 0 2543344 3104172 54 150
1500834494.797551 37789393 1 2253003 2543965 117 328
1500834494.803481 37790425 0 2543332 3104181 40 150
1500834494.805516 37797562 0 2543305 3104167 13 128
1500834494.807849 37799622 1 2252995 2543939 103 284
1500834494.812739 37804700 0 2543340 3104113 45 70
1500834494.817914 37809853 1 2252980 2543903 83 233
1500834494.819994 37811838 0 2543284 3104087 -10 42
1500834494.827045 37818977 0 2543253 3104008 -38 -34
1500834494.828335 37820083 1 2252945 2543845 45 165
1500834494.834213 37826115 0 2543228 3103923 -59 -111
1500834494.838201 37830313 1 2252923 2543769 22 84
1500834494.841272 37833253 0 2543198 3103793 -83 -225
1500834494.848550 37840392 0 2543159 3103725 -114 -274
1500834494.849740 37840542 1 2252868 2543702 -30 16
1500834494.855473 37847530 0 2543123 3103619 -140 -356
1500834494.858736 37850771 1 2252852 2543610 -43 -71
1500834494.862751 37854669 0 2543156 3103498 -100 -447
1500834494.868957 37861001 1 2252786 2543487 -102 -181
1500834494.870384 37861808 0 2543064 3103380 -180 -529
1500834494.876876 37868947 0 2543031 3103306 -199 -565
1500834494.879195 37871232 1 2252770 2543381 -110 -269
1500834494.884001 37876086 0 2543058 3103197 -161 -631
1500834494.889245 37881463 1 2252716 2543264 -153 -361
1500834494.891124 37883225 0 2542986 3103116 -218 -667
1500834494.898289 37890364 0 2542962 3103032 -226 -704
1500834494.899622 37891693 1 2252689 2543166 -168 -430
1500834494.905355 37897503 0 2542944 3102966 -228 -721
1500834494.909695 37901925 1 2252642 2543101 -201 -464
1500834494.912465 37904642 0 2542921 3102897 -235 -740
1500834494.919891 37911780 0 2542897 3102846 -242 -741
1500834494.920927 37912156 1 2252617 2542997 -211 -532
1500834494.926742 37918919 0 2542884 3102778 -239 -758
1500834494.930196 37922387 1 2252589 2542933 -224 -558
1500834494.933810 37926058 0 2542898 3102741 -210 -745
1500834494.940369 37932618 1 2252556 2542872 -240 -580
1500834494.941861 37933196 0 2542845 3102672 -246 -763
1500834494.948101 37940335 0 2542831 3102639 -243 -746
1500834494.950657 37942848 1 2252538 2542827 -241 -585
1500834494.955214 37947474 0 2542832 3102621 -226 -716
1500834494.960825 37953079 1 2252520 2542786 -242 -586
1500834494.962268 37954613 0 2542841 3102646 -203 -647
1500834494.969480 37961752 0 2542828 3102661 -202 -592
1500834494.970908 37963309 1 2252528 2542748 -219 -585
1500834494.976607 37968891 0 2542866 3102663 -153 -553
1500834494.981071 37973540 1 2252517 2542731 -215 -564
1500834494.983630 37976030 0 2542835 3102660 -172 -521
1500834494.990967 37983168 0 2542852 3102689 -145 -461
1500834494.992087 37983772 1 2252539 2542726 -180 -533
1500834494.997834 37990307 0 2542856 3102681 -132 -439
1500834495.001531 37994004 1 2252529 2542725 -178 -500
1500834495.005077 37997446 0 2542838 3102705 -140 -389
1500834495.011986 38004234 1 2252539 2542728 -157 -465
1500834495.013174 38004584 0 2542846 3102712 -123 -358
1500834495.019078 38011724 0 2542833 3102714 -127 -333
1500834495.021806 38014464 1 2252545 2542743 -141 -421
1500834495.026197 38018861 0 2542856 3102683 -97 -341
1500834495.031939 38024694 1 2252556 2542747 -121 -390
1500834495.033476 38025999 0 2542855 3102748 -91 -258
1500834495.040431 38033137 0 2542840 3102754 -99 -236
1500834495.042147 38034923 1 2252559 2542791 -110 -324
1500834495.047538 38040275 0 2542887 3102767 -48 -209
1500834495.052343 38045152 1 2252545 2542796 -116 -299
1500834495.054839 38047414 0 2542856 3102792 -74 -172
1500834495.061989 38054552 0 2542881 3102831 -45 -124
1500834495.063207 38055382 1 2252554 2542817 -100 -260
1500834495.069045 38061691 0 2542889 3102873 -34 -76
1500834495.072951 38065612 1 2252553 2542841 -94 -221
1500834495.076027 38068830 0 2542897 3102870 -24 -74
1500834495.083123 38075843 1 2252573 2542852 -69 -196
1500834495.084455 38075969 0 2542909 3102905 -11 -36
1500834495.090292 38083108 0 2542907 3102905 -12 -33
1500834495.093380 38086074 1 2252574 2542850 -63 -185
1500834495.097427 38090247 0 2542916 3102888 -2 -46
1500834495.103478 38096304 1 2252565 2542865 -67 -159
1500834495.104954 38097386 0 2542898 3102940 -18 6
1500834495.111497 38104525 0 2542905 3102961 -10 26
1500834495.113602 38106534 1 2252593 2542890 -36 -125
1500834495.118797 38111664 0 2542954 3102954 37 18
1500834495.123798 38116766 1 2252585 2542909 -41 -99
1500834495.125997 38118803 0 2542916 3102945 0 9
1500834495.133072 38125943 0 2542910 3102939 -5 3
1500834495.134290 38126997 1 2252598 2542937 -26 -66
1500834495.140274 38133082 0 2542910 3102948 -4 12
1500834495.144349 38137228 1 2252590 2542939 -31 -60
1500834495.147300 38140220 0 2542909 3102917 -4 -17
1500834495.154308 38147359 0 2542907 3102973 -5 37
1500834495.155849 38147459 1 2252586 2542936 -32 -59
1500834495.161455 38154498 0 2542893 3102987 -17 48
1500834495.164808 38157689 1 2252576 2542931 -39 -60
1500834495.168511 38161637 0 2542943 3102969 31 29
1500834495.174895 38167920 1 2252602 2542922 -12 -64
1500834495.176266 38168776 0 2542908 3102987 -3 45
1500834495.182741 38175916 0 2542920 3102990 9 45
1500834495.185071 38178151 1 2252576 2542953 -35 -30
1500834495.189851 38183055 0 2542958 3102989 45 42
1500834495.195140 38188383 1 2252586 2542941 -23 -39
1500834495.196886 38190194 0 2542918 3103032 5 80
1500834495.204284 38197334 0 2542932 3103028 18 72
1500834495.205549 38198614 1 2252600 2542966 -8 -13
1500834495.211295 38204473 0 2542922 3103063 8 101
1500834495.215599 38208846 1 2252593 2542976 -14 -2
1500834495.218469 38211613 0 2542918 3103058 4 90
1500834495.225680 38218752 0 2542929 3103085 15 110
1500834495.226870 38219078 1 2252608 2542997 1 18
1500834495.232685 38225892 0 2542950 3103090 34 108
1500834495.235801 38229308 1 2252623 2543063 15 79
1500834495.239814 38233031 0 2542970 3103117 51 127
1500834495.246270 38239537 1 2252658 2543107 47 116
1500834495.247743 38240170 0 2542948 3103148 28 149
1500834495.253880 38247308 0 2542974 3103178 51 168
1500834495.256266 38249767 1 2252677 2543179 62 177
1500834495.261043 38254447 0 2542984 3103207 58 185
1500834495.266515 38259997 1 2252700 2543205 80 191
1500834495.268027 38261586 0 2542981 3103272 52 235
1500834495.275147 38268725 0 2542989 3103299 57 246
1500834495.276651 38270226 1 2252713 2543248 88 220
1500834495.282308 38275864 0 2543024 3103333 87 263
1500834495.286919 38280455 1 2252723 2543278 92 235
1500834495.289398 38283003 0 2543032 3103390 90 300
1500834495.296642 38290142 0 2543044 3103481 96 367
1500834495.297888 38290685 1 2252735 2543312 98 253
1500834495.303598 38297281 0 2543066 3103523 111 384
1500834495.307286 38300914 1 2252728 2543353 86 276
1500834495.310953 38304420 0 2543091 3103582 128 416
1500834495.317639 38311144 1 2252739 2543360 91 266
1500834495.319051 38311559 0 2543114 3103675 142 478
1500834495.325197 38318698 0 2543112 3103727 132 497
1500834495.327722 38321373 1 2252732 2543369 79 258
1500834495.332326 38325837 0 2543148 3103738 158 477
1500834495.337996 38331604 1 2252755 2543405 96 276
1500834495.339333 38332977 0 2543138 3103787 139 494
1500834495.346492 38340116 0 2543142 3103766 135 444
1500834495.348069 38341834 1 2252754 2543402 90 256
1500834495.353649 38347255 0 2543145 3103767 130 418
1500834495.358413 38352063 1 2252759 2543447 90 283
1500834495.360935 38354395 0 2543126 3103765 105 390
1500834495.367913 38361535 0 2543100 3103709 75 314
1500834495.369147 38362294 1 2252763 2543502 89 317
1500834495.375155 38368675 0 2543111 3103700 81 286
1500834495.378991 38372525 1 2252773 2543521 93 315
1500834495.382068 38375814 0 2543096 3103678 62 248
1500834495.389164 38382756 1 2252809 2543564 121 336
1500834495.390555 38382954 0 2543114 3103688 75 242
1500834495.396333 38390093 0 2543110 3103721 67 258
1500834495.399123 38392986 1 2252829 2543592 133 342
1500834495.403407 38397232 0 2543117 3103720 70 241
1500834495.409383 38403216 1 2252834 2543620 130 347
1500834495.410795 38404372 0 2543117 3103792 66 294
1500834495.417657 38411511 0 2543133 3103844 77 325
1500834495.419519 38413445 1 2252832 2543622 120 328
1500834495.424728 38418650 0 2543176 3103889 113 347
1500834495.429752 38423676 1 2252821 2543609 103 296
1500834495.431846 38425789 0 2543171 3103956 102 389
1500834495.438954 38432929 0 2543149 3103996 75 403
1500834495.440285 38433905 1 2252791 2543600 69 270
1500834495.446160 38440068 0 2543196 3104028 115 408
1500834495.450124 38444136 1 2252779 2543577 54 232
1500834495.453194 38447207 0 2543194 3103982 106 340
1500834495.460564 38454346 0 2543195 3104062 101 394
1500834495.461832 38454366 1 2252778 2543588 50 228
1500834495.467549 38461485 0 2543211 3104032 110 342
1500834495.470544 38464597 1 2252776 2543605 45 230
1500834495.474690 38468624 0 2543228 3103978 120 270
1500834495.480821 38474827 1 2252797 2543621 62 231
1500834495.482053 38475763 0 2543195 3104009 82 283
1500834495.488696 38482902 0 2543193 3104028 75 284
1500834495.490986 38485058 1 2252814 2543679 75 271
1500834495.495905 38490042 0 2543229 3104017 105 256
1500834495.501221 38495289 1 2252824 2543667 80 243
1500834495.502992 38497182 0 2543216 3104072 87 292
1500834495.510050 38504321 0 2543202 3104088 69 289
1500834495.511436 38505519 1 2252820 2543679 72 240
1500834495.517060 38511461 0 2543231 3104103 92 285
1500834495.521383 38515750 1 2252816 2543643 64 192
1500834495.524225 38518600 0 2543206 3104045 63 213
1500834495.531357 38525740 0 2543189 3104033 44 189
1500834495.532864 38525982 1 2252798 2543598 44 138
1500834495.538522 38532880 0 2543144 3103950 0 100
1500834495.541865 38536212 1 2252758 2543501 4 39
1500834495.545832 38540019 0 2543154 3103814 10 -33
1500834495.551934 38546441 1 2252741 2543431 -12 -29
1500834495.553490 38547158 0 2543080 3103688 -60 -149
1500834495.559840 38554297 0 2543033 3103542 -100 -276
1500834495.562176 38556671 1 2252699 2543299 -50 -150
1500834495.567075 38561437 0 2543018 3103387 -107 -404
1500834495.572546 38566902 1 2252639 2543201 -103 -232
1500834495.574213 38568576 0 2542952 3103258 -162 -499
1500834495.581299 38575716 0 2542886 3103143 -213 -575
1500834495.582810 38577133 1 2252610 2543116 -123 -297
1500834495.588341 38582856 0 2542873 3103054 -211 -622
1500834495.592773 38587364 1 2252585 2543047 -138 -343
1500834495.595511 38589995 0 2542851 3103023 -218 -612
1500834495.602659 38597133 0 2542852 3102991 -203 -603
1500834495.604181 38597594 1 2252572 2542998 -141 -367
1500834495.609775 38604272 0 2542846 3102987 -195 -569
1500834495.613200 38607824 1 2252558 2542931 -145 -406
1500834495.617023 38611412 0 2542858 3103012 -171 -510
1500834495.623492 38618055 1 2252531 2542864 -161 -443
1500834495.624966 38618551 0 2542851 3103039 -166 -452
1500834495.631208 38625690 0 2542855 3103059 -151 -405
1500834495.633665 38628286 1 2252514 2542818 -166 -458
1500834495.638211 38632830 0 2542873 3103068 -124 -371
1500834495.643845 38638516 1 2252466 2542757 -200 -486
1500834495.645427 38639969 0 2542886 3103060 -104 -355
1500834495.652489 38647107 0 2542876 3103056 -106 -336
1500834495.653999 38648746 1 2252459 2542699 -194 -510
1500834495.659639 38654246 0 2542876 3103029 -99 -340
1500834495.664383 38658975 1 2252455 2542685 -185 -491
1500834495.666759 38661384 0 2542854 3103001 -113 -345
1500834495.673865 38668522 0 2542839 3102977 -120 -345
1500834495.675333 38669205 1 2252443 2542646 -184 -496
1500834495.681071 38675661 0 2542838 3102974 -113 -326
1500834495.684760 38679435 1 2252449 2542645 -166 -465
1500834495.688330 38682800 0 2542833 3102955 -110 -323
1500834495.694962 38689665 1 2252466 2542666 -139 -416
1500834495.696359 38689939 0 2542836 3102990 -100 -270
1500834495.702384 38697078 0 2542839 3103028 -90 -217
1500834495.705109 38699897 1 2252463 2542666 -133 -390
1500834495.709514 38704217 0 2542883 3103027 -43 -204
1500834495.715369 38710129 1 2252482 2542687 -106 -345
1500834495.716736 38711356 0 2542869 3103088 -53 -134
1500834495.723619 38718496 0 2542887 3103165 -32 -53
1500834495.725499 38720361 1 2252495 2542701 -87 -310
1500834495.730741 38725636 0 2542956 3103197 35 -19
1500834495.735686 38730591 1 2252485 2542721 -90 -271
1500834495.737776 38732775 0 2542911 3103261 -9 43
1500834495.744961 38739915 0 2542935 3103284 15 62
1500834495.746320 38740822 1 2252497 2542712 -73 -262
1500834495.752150 38747054 0 2542950 3103289 29 63
1500834495.756122 38751053 1 2252473 2542733 -90 -225
1500834495.759254 38754193 0 2542945 3103294 23 64
1500834495.766347 38761283 1 2252481 2542751 -76 -194
1500834495.767759 38761332 0 2542946 3103338 23 102
1500834495.773511 38768470 0 2542957 3103319 32 78
1500834495.776542 38771512 1 2252511 2542748 -43 -184
1500834495.780447 38775608 0 2542977 3103310 49 65
1500834495.786723 38781741 1 2252508 2542773 -43 -149
1500834495.788110 38782747 0 2542955 3103348 26 97
1500834495.794759 38789885 0 2542952 3103373 22 115
1500834495.796727 38791971 1 2252515 2542806 -33 -108
1500834495.802006 38797024 0 2542995 3103366 61 102
1500834495.807162 38802201 1 2252508 2542773 -37 -132
1500834495.808949 38804162 0 2542953 3103385 18 114
1500834495.816088 38811300 0 2542938 3103395 3 117
1500834495.817391 38812430 1 2252515 2542817 -28 -82
1500834495.823099 38818438 0 2542976 3103367 39 84
1500834495.827238 38822660 1 2252521 2542844 -20 -51
1500834495.830577 38825576 0 2542957 3103331 19 45
1500834495.837457 38832715 0 2542937 3103376 0 85
1500834495.838745 38832890 1 2252528 2542857 -12 -35
1500834495.844624 38839854 0 2542933 3103361 -3 66
1500834495.847821 38843120 1 2252531 2542852 -8 -37
1500834495.851662 38846993 0 2542994 3103350 55 52
1500834495.858120 38853349 1 2252523 2542835 -15 -50
1500834495.859372 38854132 0 2542924 3103378 -14 75
1500834495.865947 38861272 0 2542956 3103376 17 69
1500834495.868088 38863579 1 2252508 2542822 -28 -59
1500834495.873195 38868411 0 2543010 3103362 67 52
1500834495.878450 38873809 1 2252496 2542822 -37 -55
1500834495.880316 38875550 0 2542937 3103386 -5 72
1500834495.887317 38882690 0 2542948 3103375 6 58
1500834495.888636 38884040 1 2252516 2542847 -15 -28
1500834495.894479 38889830 0 2542958 3103379 15 59
1500834495.898712 38894269 1 2252525 2542874 -5 0
1500834495.901543 38896969 0 2542957 3103394 14 70
1500834495.908576 38904108 0 2542967 3103418 23 89
1500834495.910001 38904499 1 2252532 2542923 2 46
1500834495.915705 38911247 0 2542957 3103429 13 94
1500834495.919260 38914729 1 2252560 2542962 29 80
1500834495.922823 38918387 0 2542974 3103423 29 83
1500834495.929501 38924959 1 2252534 2542974 3 87
1500834495.930731 38925526 0 2542959 3103444 14 98
1500834495.937179 38932665 0 2542953 3103450 8 98
1500834495.939876 38935189 1 2252552 2542970 20 78
1500834495.944385 38939804 0 2542983 3103457 36 99
1500834495.949778 38945419 1 2252546 2542997 14 99
1500834495.951755 38946944 0 2542965 3103480 17 115
1500834495.960179 38954083 0 2542969 3103496 20 123
1500834495.961258 38955648 1 2252564 2542999 30 95
1500834495.965740 38961221 0 2543016 3103505 63 124
1500834495.970171 38965877 1 2252558 2543016 23 105
1500834495.972643 38968360 0 2542988 3103561 33 169
1500834495.979886 38975500 0 2542991 3103564 34 162
1500834495.981164 38976106 1 2252562 2543037 26 119
1500834495.987017 38982639 0 2542994 3103588 35 175
1500834495.990470 38986336 1 2252601 2543069 61 142
1500834495.993961 38989777 0 2543011 3103601 49 177
1500834496.000863 38996566 1 2252593 2543089 50 152
1500834496.002306 38996916 0 2543025 3103635 60 198
1500834496.008225 39004054 0 2543016 3103659 48 209
1500834496.010926 39006795 1 2252594 2543100 48 153
1500834496.015488 39011193 0 2543034 3103639 62 178
1500834496.021400 39017025 1 2252596 2543137 47 179
1500834496.022728 39018332 0 2543023 3103673 48 199
1500834496.029582 39025471 0 2543025 3103676 47 190
1500834496.031337 39027254 1 2252623 2543178 70 207
1500834496.036757 39032609 0 2543031 3103678 50 180
1500834496.041564 39037483 1 2252631 2543196 74 211
1500834496.043789 39039748 0 2543017 3103687 34 178
1500834496.050891 39046886 0 2543004 3103703 20 182
1500834496.052247 39047711 1 2252634 2543217 73 218
1500834496.058081 39054024 0 2543018 3103703 32 171
1500834496.062045 39057941 1 2252620 2543227 56 214
1500834496.065286 39061162 0 2543022 3103669 34 129
1500834496.072208 39068170 1 2252632 2543245 64 218
1500834496.073649 39068300 0 2543005 3103695 16 146
1500834496.079497 39075439 0 2543004 3103701 15 143
1500834496.082347 39078399 1 2252643 2543270 71 228
1500834496.086686 39082577 0 2543039 3103664 47 100
1500834496.092613 39088628 1 2252647 2543302 71 244
1500834496.093991 39089715 0 2543014 3103710 21 137
1500834496.100796 39096853 0 2543002 3103724 9 142
1500834496.102700 39098857 1 2252676 2543327 94 253
1500834496.107856 39103991 0 2543056 3103722 60 132
1500834496.112956 39109085 1 2252664 2543335 77 245
1500834496.114927 39111129 0 2543033 3103729 35 131
1500834496.122027 39118267 0 2543028 3103758 29 150
1500834496.123428 39119314 1 2252673 2543360 81 254
1500834496.129154 39125405 0 2543034 3103769 33 151
1500834496.133189 39129542 1 2252672 2543379 75 256
1500834496.136194 39132543 0 2543015 3103768 14 141
1500834496.143453 39139681 0 2543027 3103808 25 170
1500834496.144670 39139771 1 2252664 2543375 63 237
1500834496.150493 39146819 0 2543050 3103822 45 173
1500834496.153558 39149999 1 2252682 2543405 76 251
1500834496.157518 39153957 0 2543079 3103820 70 161
1500834496.163779 39160228 1 2252674 2543429 64 258
1500834496.165144 39161095 0 2543047 3103816 36 148
1500834496.171738 39168234 0 2543052 3103845 39 166
1500834496.173813 39170455 1 2252712 2543467 96 278
1500834496.178793 39175372 0 2543083 3103820 66 133
1500834496.184034 39180684 1 2252720 2543486 98 279
1500834496.185931 39182509 0 2543048 3103846 30 150
1500834496.193151 39189648 0 2543052 3103842 32 137
1500834496.194472 39190912 1 2252737 2543528 108 301
1500834496.200207 39196786 0 2543050 3103845 29 132
1500834496.204386 39201139 1 2252738 2543548 103 301
1500834496.207288 39203923 0 2543073 3103870 49 148
1500834496.214520 39211061 0 2543048 3103907 23 174
1500834496.215766 39211367 1 2252746 2543535 105 270
1500834496.221434 39218200 0 2543051 3103920 25 176
1500834496.224966 39221596 1 2252719 2543484 74 206
1500834496.228583 39225338 0 2543084 3103919 55 165
1500834496.235022 39231824 1 2252679 2543394 32 109
1500834496.236420 39232477 0 2543040 3103874 11 113
1500834496.242861 39239615 0 2543031 3103811 2 47
1500834496.245127 39242053 1 2252659 2543312 12 26
1500834496.249872 39246754 0 2543019 3103678 -9 -80
1500834496.255378 39252283 1 2252608 2543220 -36 -61
1500834496.256957 39253892 0 2542942 3103578 -80 -168
1500834496.264053 39261031 0 2542911 3103454 -104 -273
1500834496.265579 39262513 1 2252588 2543124 -52 -147
1500834496.271325 39268169 0 2542868 3103312 -137 -389
1500834496.275763 39272742 1 2252525 2543034 -107 -222
1500834496.278299 39275308 0 2542858 3103223 -137 -448
1500834496.285628 39282446 0 2542813 3103126 -170 -510
1500834496.287002 39282972 1 2252509 2542935 -115 -300
1500834496.292599 39289584 0 2542808 3103059 -164 -540
1500834496.296025 39293202 1 2252460 2542850 -153 -360
1500834496.299693 39296722 0 2542790 3102982 -170 -578
1500834496.306441 39303431 1 2252442 2542774 -160 -408
1500834496.307812 39303860 0 2542764 3102913 -183 -606
1500834496.314090 39310998 0 2542742 3102880 -192 -599
1500834496.316653 39313659 1 2252416 2542706 -174 -446
1500834496.321240 39318135 0 2542725 3102795 -195 -641
1500834496.326708 39323889 1 2252406 2542657 -172 -464
1500834496.328175 39325274 0 2542710 3102747 -196 -645
1500834496.335368 39332412 0 2542702 3102727 -191 -623
1500834496.336860 39334117 1 2252389 2542585 -177 -502
1500834496.342469 39339549 0 2542714 3102701 -167 -608
1500834496.347170 39344345 1 2252377 2542549 -177 -504
1500834496.349501 39346688 0 2542686 3102715 -182 -556
1500834496.357005 39353826 0 2542677 3102725 -179 -511
1500834496.358034 39354574 1 2252364 2542506 -178 -512
1500834496.363769 39360964 0 2542697 3102708 -149 -495
1500834496.367592 39364803 1 2252354 2542456 -176 -526
1500834496.370976 39368102 0 2542692 3102704 -144 -467
1500834496.377820 39375032 1 2252317 2542406 -199 -540
1500834496.379135 39375241 0 2542648 3102703 -176 -438
1500834496.385107 39382378 0 2542665 3102701 -149 -412
1500834496.387964 39385261 1 2252294 2542372 -208 -538
1500834496.392263 39389516 0 2542669 3102635 -135 -448
1500834496.398439 39395490 1 2252300 2542345 -189 -529
1500834496.399791 39396654 0 2542647 3102665 -147 -391
1500834496.406502 39403792 0 2542647 3102613 -137 -415
1500834496.408319 39405719 1 2252295 2542342 -181 -498
1500834496.413605 39410930 0 2542682 3102618 -95 -384
1500834496.418647 39415949 1 2252288 2542352 -176 -457
1500834496.420764 39418069 0 2542643 3102658 -125 -322
1500834496.430632 39425208 0 2542652 3102673 -108 -287
1500834496.431328 39426179 1 2252318 2542357 -136 -423
1500834496.435208 39432347 0 2542671 3102694 -83 -249
1500834496.439141 39436409 1 2252302 2542344 -142 -408
1500834496.442283 39439486 0 2542680 3102686 -69 -240
1500834496.449549 39446624 0 2542675 3102741 -69 -173
1500834496.450765 39446638 1 2252313 2542371 -122 -357
1500834496.456416 39453762 0 2542672 3102759 -67 -145
1500834496.459491 39456866 1 2252337 2542380 -91 -326
1500834496.463533 39460900 0 2542706 3102735 -30 -158
1500834496.469440 39467095 1 2252313 2542384 -107 -301
1500834496.471276 39468038 0 2542672 3102790 -60 -96
1500834496.477991 39475177 0 2542684 3102780 -45 -99
1500834496.479995 39477324 1 2252320 2542404 -93 -263
1500834496.484969 39482316 0 2542716 3102786 -12 -87
1500834496.489942 39487553 1 2252321 2542399 -86 -251
1500834496.492057 39489454 0 2542698 3102794 -28 -74
1500834496.499252 39496594 0 2542678 3102800 -45 -63
1500834496.500587 39497783 1 2252317 2542414 -84 -221
1500834496.506520 39503733 0 2542692 3102766 -29 -90
1500834496.510782 39508014 1 2252295 2542414 -99 -207
1500834496.513473 39510872 0 2542682 3102740 -36 -108
1500834496.520585 39518011 0 2542655 3102776 -59 -67
1500834496.522182 39518244 1 2252326 2542449 -63 -161
1500834496.527664 39525150 0 2542682 3102785 -30 -54
1500834496.531257 39528474 1 2252328 2542450 -57 -150
1500834496.534804 39532288 0 2542715 3102843 3 4
1500834496.541193 39538705 1 2252340 2542469 -42 -122
1500834496.542885 39539427 0 2542706 3102867 -5 27
1500834496.549014 39546566 0 2542710 3102902 0 59
1500834496.551357 39548936 1 2252351 2542472 -29 -111
1500834496.556263 39553705 0 2542737 3102933 26 85
1500834496.561679 39559166 1 2252343 2542519 -34 -60
1500834496.563326 39560844 0 2542717 3102951 6 97
1500834496.570495 39567983 0 2542729 3102972 17 111
1500834496.571848 39569395 1 2252372 2542533 -4 -43
1500834496.577550 39575122 0 2542731 3102964 18 97
1500834496.581999 39579625 1 2252366 2542532 -9 -41
1500834496.584685 39582261 0 2542731 3102961 17 89
1500834496.591686 39589400 0 2542713 3102933 0 58
1500834496.593153 39589856 1 2252346 2542529 -27 -41
1500834496.598956 39596538 0 2542705 3102915 -7 38
1500834496.602535 39600086 1 2252342 2542552 -29 -16
1500834496.606034 39603677 0 2542719 3102892 7 15
1500834496.612723 39610316 1 2252361 2542585 -9 16
1500834496.614183 39610816 0 2542685 3102892 -25 15
1500834496.620281 39617954 0 2542683 3102883 -25 6
1500834496.622816 39620545 1 2252370 2542611 0 40
1500834496.627365 39625093 0 2542705 3102882 -2 5
1500834496.633202 39630775 1 2252392 2542635 21 60
1500834496.634579 39632232 0 2542684 3102893 -21 15
1500834496.641700 39639370 0 2542691 3102958 -13 75
1500834496.643201 39641005 1 2252397 2542653 25 74
1500834496.648846 39646509 0 2542734 3102956 29 69
1500834496.653384 39651235 1 2252395 2542697 22 111
1500834496.655890 39653648 0 2542736 3103016 30 121
1500834496.663090 39660788 0 2542731 3103036 24 133
1500834496.664392 39661465 1 2252410 2542697 35 105
1500834496.670116 39667926 0 2542755 3103080 45 166
1500834496.673920 39671695 1 2252400 2542728 24 128
1500834496.677340 39675065 0 2542748 3103063 36 140
1500834496.684078 39681924 1 2252415 2542749 37 140
1500834496.685502 39682204 0 2542764 3103115 49 180
1500834496.691530 39689343 0 2542748 3103096 31 151
1500834496.694348 39692154 1 2252412 2542804 32 183
1500834496.698746 39696482 0 2542746 3103068 28 116
1500834496.704417 39702384 1 2252435 2542844 52 210
1500834496.705926 39703621 0 2542732 3103055 14 97
1500834496.712902 39710760 0 2542733 3103044 15 81
1500834496.714591 39712613 1 2252466 2542890 78 240
1500834496.719939 39717899 0 2542747 3103050 28 82
1500834496.724831 39722842 1 2252489 2542945 95 277
1500834496.727061 39725037 0 2542730 3103065 11 91
1500834496.734191 39732176 0 2542729 3103076 10 96
1500834496.735445 39733072 1 2252491 2542982 91 295
1500834496.741306 39739315 0 2542734 3103115 15 127
1500834496.745258 39743301 1 2252487 2543000 82 294
1500834496.748399 39746454 0 2542731 3103100 12 105
1500834496.755551 39753530 1 2252493 2543016 83 291
1500834496.756986 39753592 0 2542714 3103137 -4 134
1500834496.762656 39760730 0 2542743 3103165 24 152
1500834496.765603 39763759 1 2252505 2543021 90 278
1500834496.769790 39767868 0 2542782 3103127 60 107
1500834496.775754 39773988 1 2252506 2543068 86 305
1500834496.777399 39775006 0 2542755 3103204 31 173
1500834496.784042 39782144 0 2542746 3103183 21 143
1500834496.786017 39784217 1 2252519 2543076 93 294
1500834496.791071 39789283 0 2542788 3103190 60 141
1500834496.796306 39794446 1 2252517 2543115 86 313
1500834496.798310 39796421 0 2542761 3103193 31 135
1500834496.807389 39803559 0 2542737 3103203 7 136
1500834496.808931 39804674 1 2252548 2543156 110 332
1500834496.812768 39810697 0 2542748 3103191 17 117
1500834496.816640 39814903 1 2252532 2543172 89 327
1500834496.819612 39817836 0 2542710 3103129 -19 52
1500834496.826700 39824975 0 2542728 3103140 0 60
1500834496.827939 39825132 1 2252543 2543190 94 324
1500834496.833661 39832114 0 2542695 3103131 -30 48
1500834496.836899 39835362 1 2252550 2543206 95 319
1500834496.840785 39839253 0 2542757 3103120 30 35
1500834496.847151 39845590 1 2252578 2543241 116 332
1500834496.848510 39846392 0 2542708 3103144 -17 56
1500834496.854979 39853531 0 2542719 3103191 -5 97
1500834496.857220 39855819 1 2252575 2543279 106 347
1500834496.862197 39860671 0 2542758 3103199 32 99
1500834496.867541 39866049 1 2252581 2543293 105 339
1500834496.869267 39867810 0 2542746 3103232 19 124
1500834496.876404 39874949 0 2542730 3103283 3 165
1500834496.877716 39876277 1 2252587 2543306 105 330
1500834496.883517 39882088 0 2542767 3103321 38 191
1500834496.888005 39886508 1 2252597 2543332 108 334
1500834496.890760 39889227 0 2542764 3103344 33 201
1500834496.897906 39896367 0 2542767 3103377 34 220
1500834496.899179 39896738 1 2252597 2543345 102 326
1500834496.904922 39903506 0 2542780 3103402 45 230
1500834496.908353 39906968 1 2252585 2543375 85 334
1500834496.912031 39910646 0 2542815 3103419 75 232
1500834496.918840 39917198 1 2252602 2543408 96 345
1500834496.919951 39917786 0 2542772 3103408 30 208
1500834496.926261 39924926 0 2542770 3103414 27 201
1500834496.928741 39927429 1 2252628 2543429 115 344
1500834496.933524 39932064 0 2542776 3103392 31 168
1500834496.938925 39937659 1 2252630 2543473 110 364
1500834496.940346 39939203 0 2542775 3103431 29 195
1500834496.947592 39946342 0 2542790 3103455 42 206
1500834496.949055 39947889 1 2252660 2543463 132 332
1500834496.954833 39953481 0 2542790 3103433 40 173
1500834496.959321 39958120 1 2252646 2543462 111 311
1500834496.961805 39960619 0 2542776 3103435 25 165
1500834496.969338 39967758 0 2542771 3103423 19 144
1500834496.970439 39968351 1 2252638 2543390 97 225
1500834496.976145 39974897 0 2542770 3103364 17 80
1500834496.979808 39978580 1 2252603 2543332 59 157
1500834496.983176 39982036 0 2542755 3103293 2 9
1500834496.990114 39988809 1 2252556 2543234 12 56
1500834496.991442 39989175 0 2542710 3103222 -40 -58
1500834496.997487 39996314 0 2542678 3103109 -67 -160
1500834497.000041 39999039 1 2252536 2543137 -7 -38
1500834497.004738 40003453 0 2542643 3102947 -95 -301
1500834497.010441 40009268 1 2252475 2543045 -63 -121
1500834497.011833 40010593 0 2542582 3102810 -146 -410
1500834497.018882 40017732 0 2542547 3102681 -169 -505
1500834497.020608 40019497 1 2252439 2542943 -92 -209
1500834497.026396 40024872 0 2542521 3102544 -182 -601
1500834497.030925 40029726 1 2252399 2542810 -123 -320
1500834497.033162 40032010 0 2542469 3102405 -219 -693
1500834497.040459 40039150 0 2542417 3102283 -254 -764
1500834497.041665 40039955 1 2252344 2542726 -166 -378
1500834497.047437 40046289 0 2542414 3102206 -240 -788
1500834497.051227 40050184 1 2252336 2542669 -163 -407
1500834497.054637 40053427 0 2542377 3102108 -259 -830
1500834497.061763 40060412 1 2252315 2542599 -172 -447
1500834497.063005 40060567 0 2542351 3102087 -267 -797
1500834497.068806 40067706 0 2542341 3102038 -259 -793
1500834497.071608 40070643 1 2252288 2542511 -186 -501
1500834497.075929 40074845 0 2542359 3101998 -225 -780
1500834497.081903 40080872 1 2252267 2542463 -194 -514
1500834497.083371 40081984 0 2542333 3102012 -235 -718
1500834497.090213 40089123 0 2542332 3102028 -221 -658
1500834497.092097 40091101 1 2252249 2542429 -198 -513
1500834497.097373 40096262 0 2542385 3101996 -157 -646
1500834497.102351 40101330 1 2252250 2542405 -184 -503
1500834497.104190 40103401 0 2542348 3102045 -181 -559
1500834497.111534 40110540 0 2542340 3102022 -177 -545
1500834497.112858 40111559 1 2252257 2542415 -165 -462
1500834497.118599 40117679 0 2542348 3102055 -158 -480
1500834497.122540 40121789 1 2252251 2542359 -160 -485
1500834497.125744 40124819 0 2542335 3102024 -160 -479
1500834497.132922 40131958 0 2542332 3102068 -152 -407
1500834497.134356 40132019 1 2252237 2542349 -163 -464
1500834497.139876 40139097 0 2542345 3102084 -130 -366
1500834497.143080 40142248 1 2252217 2542317 -171 -465
1500834497.147067 40146236 0 2542382 3102049 -87 -375
1500834497.153088 40152478 1 2252214 2542306 -163 -446
1500834497.154650 40153374 0 2542355 3102089 -106 -314
1500834497.161172 40160513 0 2542351 3102082 -103 -300
1500834497.163321 40162707 1 2252216 2542280 -150 -442
1500834497.168378 40167651 0 2542402 3102099 -48 -265
1500834497.173500 40172937 1 2252212 2542265 -144 -428
1500834497.175397 40174790 0 2542371 3102152 -74 -198
1500834497.182471 40181929 0 2542385 3102187 -56 -152
1500834497.184051 40183167 1 2252235 2542284 -113 -383
1500834497.189682 40189067 0 2542388 3102191 -49 -138
1500834497.193972 40193398 1 2252236 2542317 -105 -328
1500834497.196722 40196206 0 2542390 3102228 -44 -94
1500834497.203950 40203346 0 2542406 3102275 -26 -44
1500834497.205200 40203628 1 2252257 2542340 -78 -285
1500834497.211026 40210485 0 2542425 3102325 -6 6
1500834497.214435 40213859 1 2252241 2542351 -88 -256
1500834497.218135 40217624 0 2542463 3102362 30 41
1500834497.224584 40224089 1 2252258 2542379 -66 -213
1500834497.225995 40224763 0 2542443 3102425 10 98
1500834497.232324 40231903 0 2542467 3102436 32 103
1500834497.234706 40234319 1 2252259 2542395 -60 -184
1500834497.239617 40239041 0 2542503 3102448 64 108
1500834497.244907 40244549 1 2252265 2542405 -50 -163
1500834497.246650 40246180 0 2542476 3102486 35 137
1500834497.253683 40253319 0 2542473 3102501 30 143
1500834497.255079 40254779 1 2252271 2542397 -41 -160
1500834497.260913 40260457 0 2542490 3102517 45 150
1500834497.265373 40265010 1 2252251 2542420 -57 -128
1500834497.267894 40267596 0 2542496 3102529 48 152
1500834497.275064 40274736 0 2542470 3102545 21 158
1500834497.276478 40275241 1 2252276 2542430 -30 -110
1500834497.282250 40281876 0 2542493 3102547 42 150
1500834497.285764 40285473 1 2252264 2542417 -39 -115
1500834497.289312 40289016 0 2542487 3102534 34 129
1500834497.296012 40295704 1 2252242 2542428 -57 -97
1500834497.297460 40296155 0 2542467 3102538 14 125
1500834497.303477 40303294 0 2542473 3102515 19 96
1500834497.306055 40305935 1 2252263 2542466 -33 -55
1500834497.310578 40310434 0 2542486 3102504 30 80
1500834497.316281 40316167 1 2252253 2542484 -40 -34
1500834497.317753 40317573 0 2542464 3102548 8 117
1500834497.324837 40324713 0 2542489 3102573 31 134
1500834497.326486 40326398 1 2252273 2542512 -18 -5
1500834497.331910 40331852 0 2542497 3102585 37 137
1500834497.336558 40336628 1 2252288 2542535 -2 17
1500834497.339096 40338991 0 2542499 3102623 37 165
1500834497.346430 40346131 0 2542523 3102633 58 165
1500834497.347494 40346859 1 2252291 2542556 1 36
1500834497.353306 40353270 0 2542509 3102655 42 176
1500834497.356936 40357090 1 2252285 2542579 -4 56
1500834497.360456 40360409 0 2542525 3102651 55 162
1500834497.367394 40367321 1 2252293 2542593 4 66
1500834497.368623 40367548 0 2542533 3102685 60 184
1500834497.374587 40374688 0 2542528 3102692 52 180
1500834497.377551 40377552 1 2252308 2542616 18 84
1500834497.381847 40381827 0 2542550 3102706 70 182
1500834497.387649 40387782 1 2252297 2542640 7 102
1500834497.389108 40388966 0 2542548 3102761 64 223
1500834497.395947 40396104 0 2542559 3102769 71 217
1500834497.397824 40398012 1 2252321 2542673 30 127
1500834497.403064 40403243 0 2542596 3102759 102 195
1500834497.408062 40408242 1 2252334 2542704 41 149
1500834497.410178 40410382 0 2542556 3102779 59 202
1500834497.417416 40417521 0 2542568 3102804 67 213
1500834497.418705 40418472 1 2252353 2542740 57 174
1500834497.424398 40424660 0 2542584 3102834 78 228
1500834497.428382 40428703 1 2252346 2542776 47 197
1500834497.431633 40431799 0 2542578 3102830 68 210
1500834497.439093 40438938 0 2542598 3102901 83 264
1500834497.440316 40438934 1 2252362 2542795 60 203
1500834497.446084 40446077 0 2542602 3102915 82 261
1500834497.448824 40449165 1 2252368 2542819 62 213
1500834497.452970 40453217 0 2542629 3102914 103 244
1500834497.459151 40459396 1 2252382 2542841 72 221
1500834497.460498 40460356 0 2542616 3102977 85 288
1500834497.467319 40467496 0 2542602 3102984 67 277
1500834497.469190 40469626 1 2252389 2542865 75 230
1500834497.474437 40474636 0 2542659 3103024 117 298
1500834497.479592 40479857 1 2252384 2542903 66 252
1500834497.481262 40481775 0 2542616 3103032 70 287
1500834497.489396 40488915 0 2542636 3103052 85 288
1500834497.490474 40490088 1 2252414 2542942 90 273
1500834497.495580 40496054 0 2542633 3103062 77 280
1500834497.499825 40500319 1 2252413 2542943 84 257
1500834497.502679 40503193 0 2542632 3103045 72 247
1500834497.509844 40510332 0 2542639 3103081 75 266
1500834497.511177 40510550 1 2252419 2542973 85 270
1500834497.516955 40517472 0 2542640 3103097 72 265
1500834497.520098 40520781 1 2252413 2542986 75 266
1500834497.524069 40524611 0 2542683 3103089 108 241
1500834497.530475 40531012 1 2252425 2543027 82 288
1500834497.531743 40531750 0 2542640 3103089 61 226
1500834497.538214 40538890 0 2542629 3103095 47 218
1500834497.540444 40541244 1 2252428 2543036 80 279
1500834497.545369 40546030 0 2542665 3103085 78 195
1500834497.550768 40551475 1 2252455 2543084 101 307
1500834497.552501 40553168 0 2542639 3103108 49 205
1500834497.559670 40560308 0 2542632 3103114 40 198
1500834497.560985 40561705 1 2252463 2543108 103 311
1500834497.566740 40567447 0 2542660 3103124 64 195
1500834497.571183 40571936 1 2252449 2543106 84 290
1500834497.573846 40574587 0 2542650 3103148 51 206
1500834497.581189 40581727 0 2542645 3103191 44 234
1500834497.582657 40582167 1 2252467 2543142 96 306
1500834497.588097 40588866 0 2542668 3103187 63 216
1500834497.591509 40592397 1 2252454 2543163 78 307
1500834497.595325 40596006 0 2542704 3103214 93 228
1500834497.602074 40602628 1 2252474 2543162 92 287
1500834497.603451 40603145 0 2542657 3103219 44 219
1500834497.609610 40610284 0 2542675 3103212 59 199
1500834497.612078 40612858 1 2252483 2543224 95 328
1500834497.616699 40617423 0 2542677 3103203 58 179
1500834497.622362 40623090 1 2252483 2543202 90 287
1500834497.623781 40624563 0 2542674 3103212 52 177
1500834497.630805 40631703 0 2542674 3103221 49 175
1500834497.632389 40633322 1 2252503 2543229 104 295
1500834497.638178 40638842 0 2542667 3103203 40 148
1500834497.642743 40643554 1 2252487 2543245 83 292
1500834497.645148 40645980 0 2542658 3103187 30 124
1500834497.652226 40653119 0 2542648 3103161 19 92
1500834497.653647 40653783 1 2252515 2543277 105 304
1500834497.659423 40660258 0 2542655 3103139 25 66
1500834497.663152 40664014 1 2252501 2543305 86 312
1500834497.666452 40667397 0 2542639 3103150 9 73
1500834497.673299 40674245 1 2252527 2543348 105 333
1500834497.674751 40674536 0 2542636 3103164 6 82
1500834497.680654 40681675 0 2542647 3103212 16 122
1500834497.683474 40684476 1 2252532 2543356 104 320
1500834497.687813 40688814 0 2542651 3103209 19 112
1500834497.693617 40694705 1 2252534 2543367 100 311
1500834497.695102 40695953 0 2542671 3103277 37 169
1500834497.701962 40703092 0 2542662 3103296 27 177
1500834497.703819 40704935 1 2252525 2543376 86 300
1500834497.709197 40710231 0 2542703 3103301 64 171
1500834497.714031 40715165 1 2252527 2543401 83 305
1500834497.716206 40717369 0 2542671 3103311 30 170
1500834497.723352 40724508 0 2542665 3103318 23 166
1500834497.724713 40725395 1 2252534 2543414 85 299
1500834497.730560 40731647 0 2542681 3103316 37 154
1500834497.734339 40735625 1 2252536 2543444 82 309
1500834497.737678 40738786 0 2542649 3103278 5 109
1500834497.744666 40745855 1 2252543 2543447 84 293
1500834497.745987 40745925 0 2542669 3103321 24 143
1500834497.751935 40753065 0 2542679 3103309 32 123
1500834497.754811 40756086 1 2252573 2543497 107 322
1500834497.758921 40760204 0 2542696 3103276 46 85
1500834497.765083 40766317 1 2252576 2543533 104 336
1500834497.766370 40767343 0 2542651 3103332 1 133
1500834497.773225 40774483 0 2542669 3103327 18 120
1500834497.775222 40776548 1 2252586 2543561 107 342
1500834497.780378 40781623 0 2542703 3103338 49 123
1500834497.785298 40786778 1 2252588 2543559 103 319
1500834497.787430 40788763 0 2542669 3103352 15 129
1500834497.794584 40795902 0 2542675 3103342 20 112
1500834497.795982 40797008 1 2252573 2543514 83 257
1500834497.805436 40803042 0 2542662 3103321 7 86
1500834497.806789 40807238 1 2252568 2543460 74 191
1500834497.809160 40810182 0 2542644 3103230 -10 -4
1500834497.815988 40817321 0 2542631 3103182 -21 -48
1500834497.817182 40817469 1 2252522 2543382 27 106
1500834497.822987 40824461 0 2542554 3103054 -91 -165
1500834497.826049 40827700 1 2252471 2543277 -22 1
1500834497.830121 40831600 0 2542565 3102911 -75 -288
1500834497.836258 40837929 1 2252427 2543169 -61 -100
1500834497.837917 40838739 0 2542489 3102758 -141 -413
1500834497.844314 40845877 0 2542433 3102622 -184 -514
1500834497.846606 40848160 1 2252390 2543062 -91 -194
1500834497.851377 40853016 0 2542432 3102462 -173 -631
1500834497.856711 40858390 1 2252347 2542986 -125 -253
1500834497.858540 40860156 0 2542353 3102345 -236 -701
1500834497.865668 40867295 0 2542306 3102222 -265 -772
1500834497.867128 40868620 1 2252322 2542899 -140 -318
1500834497.872800 40874435 0 2542287 3102106 -266 -832
1500834497.877090 40878851 1 2252279 2542836 -171 -357
1500834497.879989 40881574 0 2542250 3102036 -284 -845
1500834497.887147 40888714 0 2542247 3101986 -269 -839
1500834497.888582 40889081 1 2252283 2542780 -156 -387
1500834497.894326 40895853 0 2542235 3101953 -263 -817
1500834497.897631 40899310 1 2252266 2542717 -162 -421
1500834497.901406 40902991 0 2542262 3101916 -221 -800
1500834497.907922 40909539 1 2252251 2542661 -165 -447
1500834497.909320 40910130 0 2542238 3101924 -229 -742
1500834497.915521 40917268 0 2542244 3101911 -209 -707
1500834497.918067 40919768 1 2252220 2542592 -183 -483
1500834497.922948 40924406 0 2542265 3101911 -176 -662
1500834497.928162 40930000 1 2252188 2542522 -201 -518
1500834497.929910 40931545 0 2542258 3101949 -171 -585
1500834497.937072 40938683 0 2542235 3101953 -181 -544
1500834497.938611 40940230 1 2252177 2542489 -198 -516
1500834497.944054 40945822 0 2542262 3101971 -144 -493
1500834497.948654 40950459 1 2252141 2542433 -219 -536
1500834497.951233 40952960 0 2542256 3101984 -140 -450
1500834497.958424 40960099 0 2542267 3102007 -120 -400
1500834497.959878 40960688 1 2252160 2542379 -187 -553
1500834497.965422 40967238 0 2542282 3101988 -98 -392
1500834497.969054 40970917 1 2252113 2542367 -219 -529
1500834497.972544 40974376 0 2542247 3101971 -124 -383
1500834497.979321 40981147 1 2252130 2542335 -189 -525
1500834497.980787 40981514 0 2542263 3102011 -101 -321
1500834497.986857 40988653 0 2542243 3102015 -113 -297
1500834497.989324 40991377 1 2252140 2542332 -167 -495
1500834497.993942 40995792 0 2542256 3101996 -93 -296
1500834497.999839 41001607 1 2252141 2542343 -155 -453
1500834498.001140 41002930 0 2542263 3102027 -80 -248
1500834498.008199 41010070 0 2542248 3102072 -89 -190
1500834498.009896 41011837 1 2252147 2542358 -139 -410
1500834498.015412 41017208 0 2542294 3102099 -40 -152
1500834498.020131 41022067 1 2252138 2542357 -138 -385
1500834498.022420 41024347 0 2542297 3102112 -34 -130
1500834498.029457 41031486 0 2542315 3102173 -15 -64
1500834498.030795 41032297 1 2252147 2542396 -120 -324
1500834498.036512 41038626 0 2542319 3102215 -10 -20
1500834498.040358 41042527 1 2252151 2542405 -108 -295
1500834498.043643 41045765 0 2542327 3102212 -1 -21
1500834498.050722 41052758 1 2252170 2542436 -83 -247
1500834498.051930 41052905 0 2542334 3102284 6 48
1500834498.057786 41060044 0 2542348 3102305 19 65
1500834498.060697 41062989 1 2252170 2542476 -77 -194
1500834498.064972 41067184 0 2542366 3102304 35 60
1500834498.071036 41073219 1 2252181 2542491 -61 -167
1500834498.072380 41074323 0 2542337 3102363 6 112
1500834498.079405 41081462 0 2542367 3102404 34 144
1500834498.081263 41083449 1 2252200 2542515 -39 -134
1500834498.086586 41088602 0 2542399 3102383 62 116
1500834498.091458 41093679 1 2252222 2542538 -15 -104
1500834498.093495 41095742 0 2542374 3102421 35 145
1500834498.100702 41102881 0 2542373 3102401 32 118
1500834498.102041 41103908 1 2252217 2542571 -18 -66
1500834498.107674 41110020 0 2542376 3102416 33 125
1500834498.111836 41114138 1 2252228 2542590 -6 -44
1500834498.114936 41117160 0 2542347 3102374 4 78
1500834498.122260 41124300 0 2542357 3102453 14 148
1500834498.123613 41124369 1 2252245 2542615 11 -17
1500834498.129096 41131440 0 2542384 3102441 39 128
1500834498.132128 41134599 1 2252249 2542635 15 3
1500834498.136147 41138579 0 2542407 3102448 59 127
1500834498.142573 41144829 1 2252254 2542676 19 42
1500834498.143977 41145718 0 2542378 3102469 29 139
1500834498.150449 41152858 0 2542376 3102455 26 118
1500834498.152508 41155059 1 2252256 2542632 20 -1
1500834498.157701 41159997 0 2542436 3102487 81 141
1500834498.162731 41165290 1 2252217 2542655 -17 21
1500834498.164524 41167136 0 2542378 3102505 22 150
1500834498.171895 41174275 0 2542387 3102504 30 140
1500834498.173218 41175519 1 2252241 2542636 7 2
1500834498.178957 41181415 0 2542388 3102520 30 147
1500834498.183212 41185749 1 2252244 2542672 10 36
1500834498.186323 41188554 0 2542377 3102511 18 130
1500834498.193654 41195693 0 2542379 3102523 19 134
1500834498.195014 41195978 1 2252269 2542706 33 66
1500834498.200138 41202832 0 2542379 3102519 18 122
1500834498.203433 41206207 1 2252269 2542741 31 95
1500834498.207247 41209970 0 2542426 3102518 61 114
1500834498.213908 41216436 1 2252299 2542791 58 136
1500834498.215263 41217110 0 2542395 3102535 29 123
1500834498.221608 41224248 0 2542407 3102568 39 147
1500834498.223933 41226665 1 2252314 2542817 69 152
1500834498.228641 41231387 0 2542441 3102597 69 165
1500834498.234045 41236894 1 2252340 2542888 90 210
1500834498.235645 41238526 0 2542418 3102681 44 234
1500834498.242836 41245666 0 2542436 3102713 59 250
1500834498.244151 41247124 1 2252346 2542898 90 207
1500834498.249910 41252805 0 2542496 3102761 112 280
1500834498.254615 41257353 1 2252346 2542918 85 213
1500834498.257115 41259944 0 2542474 3102805 85 304
1500834498.264302 41267083 0 2542480 3102832 86 311
1500834498.265559 41267584 1 2252372 2542965 105 244
1500834498.273065 41274222 0 2542485 3102887 86 344
1500834498.275182 41277813 1 2252376 2543004 103 266
1500834498.278630 41281360 0 2542490 3102896 86 331
1500834498.285218 41288042 1 2252380 2543028 101 272
1500834498.286562 41288499 0 2542518 3102921 107 334
1500834498.292587 41295638 0 2542494 3102934 78 326
1500834498.295213 41298272 1 2252399 2543065 113 290
1500834498.299826 41302776 0 2542516 3102957 94 328
1500834498.305405 41308502 1 2252418 2543128 124 331
1500834498.306916 41309914 0 2542509 3102956 82 307
1500834498.313968 41317052 0 2542512 3102980 80 311
1500834498.315597 41318732 1 2252430 2543141 128 323
1500834498.321378 41324190 0 2542554 3102999 115 310
1500834498.325884 41328963 1 2252438 2543169 128 330
1500834498.328159 41331329 0 2542530 3103035 86 325
1500834498.335304 41338468 0 2542532 3103077 83 345
1500834498.336660 41339192 1 2252454 2543207 135 345
1500834498.342524 41345607 0 2542553 3103130 98 374
1500834498.346293 41349421 1 2252446 2543197 120 315
1500834498.349612 41352745 0 2542545 3103130 85 351
1500834498.356589 41359650 1 2252437 2543232 105 329
1500834498.358064 41359884 0 2542569 3103172 103 369
1500834498.363787 41367022 0 2542569 3103170 97 345
1500834498.366554 41369880 1 2252452 2543257 113 332
1500834498.370893 41374161 0 2542584 3103170 105 324
1500834498.376785 41380110 1 2252457 2543264 111 318
1500834498.378271 41381299 0 2542587 3103201 102 333
1500834498.385122 41388438 0 2542592 3103233 101 343
1500834498.387037 41390340 1 2252456 2543303 104 335
1500834498.392310 41395577 0 2542603 3103249 105 337
1500834498.397104 41400569 1 2252465 2543336 106 345
1500834498.399319 41402716 0 2542584 3103223 81 292
1500834498.406723 41409855 0 2542602 3103250 93 300
1500834498.407964 41410799 1 2252469 2543361 104 347
1500834498.413639 41416994 0 2542585 3103265 72 296
1500834498.417626 41421029 1 2252513 2543399 139 361
1500834498.420751 41424133 0 2542572 3103191 56 209
1500834498.427985 41431258 1 2252509 2543441 127 378
1500834498.430813 41431272 0 2542598 3103233 77 236
1500834498.435037 41438411 0 2542571 3103238 47 226
1500834498.438051 41441487 1 2252526 2543483 135 394
1500834498.442043 41445550 0 2542602 3103221 74 196
1500834498.448534 41451718 1 2252547 2543512 147 397
1500834498.449766 41452688 0 2542580 3103242 49 204
1500834498.456474 41459827 0 2542565 3103253 32 202
1500834498.458591 41461947 1 2252566 2543534 156 393
1500834498.463604 41466965 0 2542621 3103259 83 195
1500834498.468815 41472177 1 2252556 2543555 137 389
1500834498.470665 41474104 0 2542586 3103267 45 191
1500834498.477734 41481244 0 2542589 3103300 45 210
1500834498.479042 41482406 1 2252553 2543553 126 363
1500834498.484821 41488383 0 2542577 3103312 31 209
1500834498.489020 41492636 1 2252561 2543542 126 330
1500834498.491941 41495522 0 2542595 3103290 46 176
1500834498.499151 41502661 0 2542582 3103347 31 219
1500834498.500363 41502868 1 2252557 2543558 115 325
1500834498.506008 41509800 0 2542583 3103323 30 183
1500834498.509217 41513098 1 2252534 2543570 87 316
1500834498.513219 41516940 0 2542632 3103300 75 150
1500834498.519693 41523328 1 2252538 2543581 86 307
1500834498.521018 41524079 0 2542582 3103322 24 162
1500834498.527412 41531219 0 2542572 3103343 14 172
1500834498.529764 41533558 1 2252534 2543595 77 301
1500834498.534518 41538358 0 2542615 3103339 54 158
1500834498.539939 41543788 1 2252545 2543616 83 302
1500834498.541707 41545497 0 2542587 3103352 25 161
1500834498.548792 41552635 0 2542589 3103369 26 167
1500834498.550209 41554017 1 2252583 2543657 114 322
1500834498.555958 41559773 0 2542605 3103353 40 142
1500834498.560274 41564246 1 2252576 2543702 101 345
1500834498.563076 41566912 0 2542600 3103360 33 140
1500834498.570362 41574051 0 2542599 3103395 30 165
1500834498.571651 41574476 1 2252609 2543745 126 364
1500834498.577387 41581190 0 2542602 3103452 31 209
1500834498.581045 41584706 1 2252614 2543771 123 366
1500834498.584560 41588329 0 2542637 3103494 62 236
1500834498.591160 41594936 1 2252612 2543750 114 324
1500834498.592435 41595468 0 2542646 3103511 67 238
1500834498.598786 41602607 0 2542638 3103518 56 230
1500834498.601137 41605166 1 2252616 2543695 111 253
1500834498.605817 41609746 0 2542618 3103451 34 153
1500834498.611382 41615395 1 2252580 2543642 71 188
1500834498.612814 41616884 0 2542584 3103392 0 89
1500834498.620105 41624023 0 2542541 3103275 -40 -26
1500834498.621573 41625624 1 2252544 2543559 33 99
1500834498.627246 41631161 0 2542523 3103086 -54 -201
1500834498.631740 41635853 1 2252525 2543489 14 28
1500834498.634537 41638300 0 2542451 3102971 -118 -296
1500834498.641565 41645439 0 2542425 3102845 -135 -395
1500834498.642827 41646082 1 2252472 2543386 -36 -70
1500834498.648682 41652577 0 2542376 3102719 -172 -488
1500834498.652244 41656310 1 2252411 2543291 -90 -154
1500834498.655890 41659715 0 2542346 3102600 -189 -569
1500834498.662644 41666539 1 2252393 2543205 -101 -225
1500834498.664103 41666854 0 2542327 3102506 -195 -621
1500834498.669926 41673993 0 2542291 3102415 -216 -667
1500834498.672576 41676769 1 2252362 2543150 -123 -262
1500834498.677021 41681133 0 2542281 3102336 -211 -699
1500834498.683038 41686999 1 2252334 2543082 -141 -309
1500834498.684396 41688272 0 2542247 3102311 -229 -678
1500834498.691300 41695411 0 2542247 3102267 -214 -676
1500834498.693011 41697229 1 2252318 2543035 -147 -333
1500834498.698447 41702551 0 2542255 3102213 -193 -684
1500834498.703298 41707460 1 2252292 2542966 -162 -376
1500834498.705583 41709691 0 2542234 3102197 -200 -656
1500834498.712678 41716830 0 2542220 3102192 -200 -619
1500834498.714119 41717691 1 2252289 2542935 -154 -381
1500834498.719689 41723969 0 2542209 3102158 -197 -612
1500834498.723742 41727922 1 2252271 2542876 -161 -412
1500834498.726859 41731109 0 2542196 3102086 -196 -641
1500834498.733969 41738152 1 2252254 2542861 -166 -400
1500834498.735433 41738248 0 2542176 3102097 -202 -590
1500834498.741024 41745387 0 2542167 3102089 -197 -560
1500834498.743906 41748382 1 2252237 2542806 -171 -426
1500834498.748388 41752527 0 2542197 3102021 -156 -588
1500834498.754364 41758614 1 2252231 2542804 -165 -401
1500834498.755815 41759667 0 2542170 3102050 -171 -524
1500834498.762544 41766806 0 2542163 3102069 -166 -473
1500834498.764426 41768844 1 2252234 2542788 -151 -390
1500834498.769563 41773945 0 2542214 3102044 -107 -466
1500834498.774603 41779075 1 2252220 2542785 -154 -368
1500834498.776853 41781084 0 2542170 3102058 -141 -423
1500834498.783909 41788224 0 2542175 3102065 -127 -390
1500834498.785260 41789305 1 2252228 2542777 -136 -352
1500834498.791006 41795364 0 2542199 3102061 -96 -369
1500834498.794975 41799536 1 2252240 2542788 -116 -319
1500834498.798017 41802504 0 2542175 3102048 -112 -358
1500834498.805436 41809644 0 2542189 3102131 -91 -257
1500834498.806611 41809767 1 2252256 2542803 -93 -285
1500834498.812255 41816783 0 2542202 3102156 -73 -217
1500834498.815346 41819998 1 2252270 2542805 -74 -265
1500834498.819428 41823922 0 2542251 3102195 -22 -166
1500834498.825741 41830228 1 2252290 2542856 -50 -200
1500834498.826951 41831061 0 2542233 3102287 -37 -69
1500834498.833681 41838200 0 2542248 3102315 -20 -38
1500834498.835772 41840458 1 2252307 2542882 -30 -163
1500834498.840681 41845340 0 2542285 3102375 16 21
1500834498.846060 41850688 1 2252326 2542881 -10 -153
1500834498.847781 41852479 0 2542295 3102424 25 66
1500834498.854845 41859618 0 2542281 3102444 11 81
1500834498.856338 41860918 1 2252285 2542880 -47 -144
1500834498.862061 41866757 0 2542317 3102475 45 105
1500834498.866416 41871148 1 2252297 2542869 -32 -145
1500834498.869097 41873896 0 2542298 3102445 25 71
1500834498.876257 41881035 0 2542288 3102480 15 100
1500834498.877713 41881378 1 2252301 2542878 -26 -127
1500834498.883548 41888173 0 2542272 3102455 0 71
1500834498.886770 41891609 1 2252285 2542875 -39 -121
1500834498.890371 41895313 0 2542320 3102436 45 49
1500834498.896973 41901838 1 2252282 2542874 -39 -114
1500834498.898367 41902452 0 2542262 3102424 -12 35
1500834498.904652 41909591 0 2542274 3102434 0 43
1500834498.907025 41912067 1 2252308 2542912 -12 -71
1500834498.911678 41916730 0 2542278 3102421 4 29
1500834498.917310 41922297 1 2252329 2542940 9 -40
1500834498.918752 41923870 0 2542277 3102446 3 51
1500834498.925935 41931009 0 2542281 3102463 7 64
1500834498.927497 41932526 1 2252338 2542969 17 -10
1500834498.933046 41938148 0 2542296 3102483 21 79
1500834498.937654 41942756 1 2252347 2543000 25 20
1500834498.940171 41945287 0 2542298 3102508 22 98
1500834498.947320 41952426 0 2542290 3102514 14 98
1500834498.948813 41952985 1 2252379 2543050 54 66
1500834498.954522 41959565 0 2542290 3102528 14 105
1500834498.958196 41963216 1 2252399 2543084 70 94
1500834498.961788 41966703 0 2542306 3102528 29 99
1500834498.968715 41973447 1 2252424 2543111 90 114
1500834498.969854 41973842 0 2542295 3102542 17 106
1500834498.975976 41980981 0 2542305 3102554 26 111
1500834498.978586 41983677 1 2252421 2543133 82 128
1500834498.982991 41988119 0 2542283 3102531 4 83
1500834498.988679 41993907 1 2252443 2543143 98 130
1500834498.990009 41995258 0 2542300 3102524 20 72
1500834498.997191 42002397 0 2542291 3102514 11 59
1500834498.998758 42004136 1 2252433 2543141 83 120
1500834499.004445 42009535 0 2542316 3102517 34 59
1500834499.009189 42014365 1 2252417 2543162 63 133
1500834499.011572 42016672 0 2542268 3102561 -13 97
1500834499.018663 42023809 0 2542301 3102577 19 106
1500834499.020031 42024594 1 2252449 2543177 90 139
1500834499.025654 42030947 0 2542318 3102598 34 120
1500834499.029496 42034824 1 2252462 2543195 97 148
1500834499.032961 42038086 0 2542343 3102647 56 159
1500834499.039735 42045053 1 2252468 2543235 97 177
1500834499.041152 42045224 0 2542330 3102695 41 195
1500834499.046992 42052362 0 2542348 3102745 56 230
1500834499.049784 42055282 1 2252469 2543242 92 173
1500834499.054042 42059501 0 2542385 3102760 88 230
1500834499.060048 42065513 1 2252470 2543261 88 180
1500834499.061426 42066639 0 2542351 3102826 51 278
1500834499.068489 42073778 0 2542370 3102836 66 270
1500834499.070402 42075743 1 2252490 2543306 102 211
1500834499.075491 42080917 0 2542403 3102861 93 277
1500834499.080473 42085973 1 2252498 2543309 104 201
1500834499.082553 42088055 0 2542398 3102881 83 279
1500834499.089694 42095193 0 2542384 3102889 65 270
1500834499.091135 42096203 1 2252522 2543353 120 230
1500834499.096928 42102332 0 2542398 3102891 75 255
1500834499.100842 42106433 1 2252516 2543378 107 240
1500834499.104147 42109470 0 2542373 3102826 47 179
1500834499.111093 42116609 0 2542391 3102860 61 200
1500834499.112485 42116663 1 2252534 2543403 118 249
1500834499.118319 42123747 0 2542387 3102839 54 168
1500834499.121441 42126891 1 2252566 2543442 141 270
1500834499.125519 42130885 0 2542387 3102799 51 120
1500834499.131623 42137121 1 2252575 2543487 141 296
1500834499.133183 42138024 0 2542368 3102858 30 168
1500834499.139668 42145163 0 2542369 3102900 30 197
1500834499.141839 42147352 1 2252576 2543500 134 290
1500834499.146682 42152302 0 2542441 3102903 96 188
1500834499.151981 42157582 1 2252601 2543511 150 283
1500834499.153797 42159440 0 2542400 3102962 52 232
1500834499.161063 42166578 0 2542398 3102990 47 244
1500834499.162576 42167810 1 2252604 2543532 144 285
1500834499.168116 42173716 0 2542422 3102998 67 237
1500834499.172330 42178039 1 2252609 2543534 140 270
1500834499.175243 42180854 0 2542410 3103002 52 226
1500834499.182345 42187992 0 2542400 3103015 40 225
1500834499.183543 42188267 1 2252606 2543557 129 275
1500834499.189554 42195129 0 2542419 3102999 56 196
1500834499.192870 42198496 1 2252623 2543556 137 257
1500834499.196632 42202267 0 2542448 3103002 80 187
1500834499.203185 42208724 1 2252622 2543586 128 270
1500834499.204455 42209405 0 2542381 3102965 13 141
1500834499.210890 42216543 0 2542383 3102958 15 126
1500834499.213287 42218952 1 2252648 2543626 145 291
1500834499.217884 42223680 0 2542396 3102935 27 97
1500834499.223279 42229180 1 2252648 2543686 136 330
1500834499.225031 42230817 0 2542365 3102951 -3 106
1500834499.232247 42237954 0 2542374 3102980 6 127
1500834499.233568 42239408 1 2252669 2543685 148 309
1500834499.239270 42245091 0 2542404 3102982 34 121
1500834499.243671 42249635 1 2252673 2543713 143 316
1500834499.246235 42252229 0 2542390 3103018 19 148
1500834499.253491 42259367 0 2542409 3103046 36 165
1500834499.254858 42259863 1 2252684 2543732 145 315
1500834499.260500 42266503 0 2542409 3103086 34 193
1500834499.264222 42270090 1 2252669 2543758 122 320
1500834499.267772 42273640 0 2542432 3103092 54 187
1500834499.274257 42280318 1 2252687 2543788 132 329
1500834499.275941 42280778 0 2542410 3103139 30 220
1500834499.281920 42287914 0 2542438 3103157 55 224
1500834499.284453 42290546 1 2252698 2543777 135 299
1500834499.288899 42295051 0 2542431 3103144 45 198
1500834499.294576 42300775 1 2252694 2543780 123 284
1500834499.295994 42302188 0 2542435 3103192 46 231
1500834499.303157 42309326 0 2542452 3103220 60 243
1500834499.304737 42311004 1 2252697 2543764 119 252
1500834499.310287 42316463 0 2542460 3103206 64 215
1500834499.315211 42321233 1 2252690 2543751 105 225
1500834499.317405 42323600 0 2542443 3103212 45 208
1500834499.324531 42330739 0 2542438 3103175 38 161
1500834499.325944 42331463 1 2252664 2543705 75 168
1500834499.331532 42337876 0 2542402 3103079 2 61
1500834499.335568 42341693 1 2252613 2543616 23 75
1500834499.338902 42345015 0 2542377 3102997 -21 -19
1500834499.345777 42351922 1 2252577 2543556 -12 15
1500834499.347232 42352153 0 2542335 3102903 -59 -105
1500834499.353184 42359291 0 2542298 3102786 -90 -208
1500834499.355997 42362151 1 2252542 2543463 -44 -73
1500834499.360244 42366429 0 2542263 3102607 -117 -362
1500834499.366268 42372381 1 2252499 2543387 -81 -139
1500834499.367656 42373567 0 2542221 3102477 -149 -461
1500834499.374689 42380706 0 2542151 3102343 -205 -557
1500834499.376180 42382610 1 2252490 2543328 -84 -185
1500834499.381600 42387844 0 2542142 3102218 -200 -639
1500834499.386619 42392839 1 2252484 2543311 -84 -189
1500834499.388719 42394982 0 2542103 3102187 -224 -628
1500834499.395867 42402119 0 2542094 3102131 -218 -641
1500834499.397251 42403067 1 2252490 2543280 -73 -206
1500834499.402948 42409257 0 2542098 3102107 -200 -623
1500834499.406875 42413296 1 2252488 2543273 -70 -199
1500834499.410188 42416394 0 2542063 3102045 -220 -642
1500834499.417062 42423525 1 2252473 2543252 -79 -206
1500834499.418621 42423533 0 2542057 3102086 -211 -563
1500834499.424250 42430671 0 2542066 3102023 -189 -586
1500834499.427179 42433754 1 2252493 2543239 -55 -205
1500834499.431498 42437810 0 2542096 3102017 -149 -555
1500834499.437600 42443983 1 2252462 2543224 -80 -206
1500834499.439004 42444948 0 2542043 3102019 -189 -518
1500834499.445785 42452087 0 2542038 3102008 -181 -495
1500834499.447650 42454212 1 2252480 2543215 -58 -201
1500834499.452819 42459226 0 2542109 3102021 -103 -451
1500834499.457802 42464442 1 2252479 2543208 -55 -195
1500834499.459895 42466365 0 2542054 3102043 -148 -402
1500834499.467162 42473504 0 2542081 3102070 -113 -351
1500834499.468468 42474671 1 2252465 2543185 -64 -204
1500834499.474089 42480642 0 2542070 3102075 -116 -324
1500834499.478401 42484901 1 2252461 2543160 -63 -214
1500834499.481217 42487780 0 2542077 3102069 -102 -309
1500834499.488389 42494919 0 2542080 3102095 -92 -265
1500834499.489791 42495130 1 2252448 2543122 -71 -236
1500834499.495363 42502057 0 2542069 3102091 -96 -252
1500834499.498594 42505359 1 2252440 2543103 -74 -239
1500834499.502516 42509196 0 2542111 3102058 -50 -267
1500834499.508790 42515588 1 2252459 2543087 -51 -239
1500834499.510407 42516334 0 2542085 3102058 -71 -250
1500834499.516783 42523473 0 2542067 3102054 -83 -238
1500834499.518965 42525817 1 2252451 2543095 -55 -216
1500834499.523742 42530611 0 2542109 3102067 -38 -210
1500834499.529155 42536046 1 2252443 2543121 -59 -178
1500834499.530918 42537750 0 2542074 3102118 -68 -149
1500834499.538225 42544889 0 2542084 3102147 -54 -112
1500834499.539481 42546275 1 2252464 2543137 -35 -151
1500834499.545328 42552028 0 2542105 3102181 -30 -73
1500834499.549607 42556506 1 2252448 2543139 -47 -139
1500834499.552099 42559166 0 2542118 3102201 -15 -49
1500834499.559485 42566305 0 2542113 3102261 -18 11
1500834499.560828 42566735 1 2252476 2543171 -17 -100
1500834499.566618 42573444 0 2542141 3102286 10 34
1500834499.570177 42576964 1 2252499 2543189 6 -76
1500834499.573753 42580583 0 2542156 3102306 24 51
1500834499.580303 42587193 1 2252498 2543210 5 -51
1500834499.581567 42587721 0 2542140 3102321 8 62
1500834499.587766 42594859 0 2542147 3102335 15 72
1500834499.590461 42597422 1 2252488 2543197 -4 -60
1500834499.595022 42601997 0 2542150 3102347 17 79
1500834499.600603 42607651 1 2252474 2543203 -16 -50
1500834499.602009 42609136 0 2542147 3102348 14 75
1500834499.609198 42616274 0 2542152 3102360 18 82
1500834499.610713 42617880 1 2252462 2543164 -26 -83
1500834499.616367 42623413 0 2542156 3102353 21 71
1500834499.620924 42628110 1 2252451 2543149 -34 -91
1500834499.623336 42630551 0 2542156 3102380 20 92
1500834499.630740 42637689 0 2542143 3102379 7 86
1500834499.632185 42638339 1 2252457 2543167 -26 -68
1500834499.637692 42644826 0 2542160 3102390 23 91
1500834499.641334 42648568 1 2252456 2543159 -25 -71
1500834499.644642 42651964 0 2542131 3102380 -5 76
1500834499.651672 42658797 1 2252455 2543192 -24 -35
1500834499.652895 42659102 0 2542165 3102381 28 73
1500834499.658965 42666239 0 2542147 3102403 10 90
1500834499.661898 42669027 1 2252467 2543204 -11 -21
1500834499.666089 42673377 0 2542157 3102366 19 50
1500834499.671990 42679256 1 2252485 2543228 7 3
1500834499.673154 42680515 0 2542137 3102371 0 52
1500834499.680268 42687653 0 2542132 3102374 -4 52
1500834499.682042 42689484 1 2252488 2543260 10 33
1500834499.687365 42694791 0 2542155 3102396 18 70
1500834499.692268 42699713 1 2252508 2543295 29 64
1500834499.694589 42701929 0 2542128 3102393 -8 63
1500834499.701907 42709067 0 2542119 3102422 -15 87
1500834499.703100 42709942 1 2252539 2543338 57 101
1500834499.708935 42716204 0 2542139 3102401 5 62
1500834499.712724 42720171 1 2252559 2543376 73 131
1500834499.716162 42723342 0 2542119 3102400 -14 58
1500834499.723308 42730401 1 2252561 2543421 71 165
1500834499.724446 42730480 0 2542138 3102460 5 111
1500834499.730266 42737618 0 2542137 3102470 4 114
1500834499.733241 42740630 1 2252565 2543453 71 185
1500834499.737394 42744755 0 2542174 3102426 39 66
1500834499.743375 42750860 1 2252587 2543465 88 185
1500834499.744843 42751894 0 2542138 3102493 3 125
1500834499.751555 42759032 0 2542170 3102498 33 122
1500834499.753490 42761090 1 2252593 2543500 89 207
1500834499.758688 42766171 0 2542197 3102529 57 144
1500834499.763739 42771319 1 2252608 2543516 98 210
1500834499.765661 42773309 0 2542194 3102561 51 165
1500834499.772848 42780447 0 2542194 3102623 48 213
1500834499.774382 42781549 1 2252618 2543528 102 209
1500834499.779973 42787585 0 2542204 3102657 55 232
1500834499.784155 42791778 1 2252614 2543557 92 224
1500834499.787170 42794723 0 2542208 3102627 56 190
1500834499.794294 42801861 0 2542202 3102676 47 225
1500834499.795555 42802009 1 2252619 2543573 91 225
1500834499.802477 42808999 0 2542212 3102676 54 211
1500834499.804719 42812238 1 2252640 2543602 105 239
1500834499.808540 42816137 0 2542237 3102672 75 195
1500834499.814647 42822468 1 2252630 2543617 90 239
1500834499.816152 42823275 0 2542217 3102719 52 227
