# {"dataType":"PPG",
# "sensor":"MAX30102",
# "hardware":"LPC824_MAX30102",
# "firmware":"0.1",
# "sampling_rate":100,
# "subject":"JD",
# "timestamp":"2017-07-23T18:30",
# "sensorLocations":["left hand middle finter tip","left hand palm"] }
1500834645.696056 45987296 0 2271639 2831251 76 134
1500834645.698199 45990867 0 2271625 2831246 59 121
1500834645.699560 45992378 1 1992965 2548401 40 75
1500834645.701788 45994438 0 2271617 2831282 48 148
1500834645.704837 45997496 1 1992948 2548428 22 96
1500834645.706062 45998010 0 2271611 2831256 40 115
1500834645.708751 46001581 0 2271601 2831230 29 84
1500834645.710207 46002615 1 1992952 2548405 25 69
1500834645.712398 46005152 0 2271591 2831195 18 46
1500834645.714927 46007733 1 1992943 2548420 15 79
1500834645.716301 46008723 0 2271600 2831241 26 87
1500834645.719455 46012294 0 2271630 2831247 53 88
1500834645.720792 46012851 1 1992953 2548416 24 71
1500834645.723133 46015866 0 2271613 2831229 34 66
1500834645.725052 46017968 1 1992945 2548430 15 80
1500834645.726557 46019437 0 2271609 2831256 29 88
1500834645.730432 46023008 0 2271609 2831237 28 65
1500834645.731417 46023086 1 1992964 2548431 32 76
1500834645.733775 46026579 0 2271640 2831252 56 75
1500834645.735417 46028203 1 1992968 2548440 34 80
1500834645.737315 46030151 0 2271602 2831263 17 81
1500834645.740454 46033321 1 1992970 2548452 34 87
1500834645.741775 46033722 0 2271623 2831263 36 76
1500834645.744484 46037293 0 2271623 2831287 34 94
1500834645.745743 46038438 1 1992982 2548435 44 66
1500834645.747791 46040864 0 2271609 2831289 19 90
1500834645.750577 46043556 1 1992968 2548469 29 94
1500834645.752110 46044434 0 2271630 2831347 38 139
1500834645.755110 46048006 0 2271693 2831359 95 142
1500834645.756381 46048673 1 1992968 2548455 28 75
1500834645.758703 46051577 0 2271655 2831365 54 139
1500834645.760782 46053790 1 1992960 2548455 19 71
1500834645.762127 46055147 0 2271664 2831394 60 158
1500834645.765889 46058719 0 2271678 2831428 70 180
1500834645.767217 46058907 1 1992980 2548481 37 91
1500834645.769295 46062290 0 2271711 2831433 97 174
1500834645.770994 46064024 1 1992969 2548486 25 90
1500834645.772794 46065861 0 2271670 2831443 53 173
1500834645.775949 46069141 1 1992965 2548487 20 86
1500834645.777427 46069433 0 2271691 2831447 70 166
1500834645.779956 46073004 0 2271684 2831407 60 119
1500834645.781294 46074259 1 1992978 2548493 31 87
1500834645.783420 46076576 0 2271669 2831426 43 130
1500834645.786148 46079376 1 1992971 2548488 23 77
1500834645.787525 46080147 0 2271691 2831460 61 154
1500834645.790595 46083718 0 2271713 2831426 78 113
1500834645.791928 46084494 1 1992976 2548498 27 82
1500834645.794116 46087290 0 2271670 2831399 33 81
1500834645.796388 46089611 1 1992975 2548488 25 68
1500834645.797721 46090861 0 2271671 2831399 32 76
1500834645.803221 46094432 0 2271657 2831325 17 2
1500834645.808273 46094729 1 1992950 2548472 0 49
1500834645.809655 46098004 0 2271660 2831290 19 -30
1500834645.811192 46099848 1 1992961 2548453 11 29
1500834645.812498 46101575 0 2271610 2831226 -29 -88
1500834645.813645 46104966 1 1992956 2548423 6 0
1500834645.814723 46105147 0 2271573 2831150 -61 -153
1500834645.815615 46108718 0 2271551 2831066 -77 -222
1500834645.816832 46110084 1 1992949 2548419 0 -3
1500834645.819101 46112289 0 2271503 2831002 -117 -268
1500834645.822031 46115202 1 1992951 2548389 2 -30
1500834645.823417 46115861 0 2271460 2830908 -150 -339
1500834645.826392 46119432 0 2271429 2830833 -169 -388
1500834645.827812 46120321 1 1992915 2548369 -31 -46
1500834645.829764 46123003 0 2271370 2830703 -213 -485
1500834645.832160 46125439 1 1992913 2548319 -30 -90
1500834645.833606 46126574 0 2271355 2830679 -213 -477
1500834645.836906 46130146 0 2271333 2830581 -220 -539
1500834645.838238 46130557 1 1992901 2548283 -39 -118
1500834645.840510 46133717 0 2271297 2830521 -240 -561
1500834645.842203 46135675 1 1992896 2548266 -41 -126
1500834645.844187 46137288 0 2271259 2830454 -260 -588
1500834645.847363 46140793 1 1992892 2548236 -42 -146
1500834645.848840 46140860 0 2271226 2830387 -274 -614
1500834645.851140 46144431 0 2271214 2830314 -268 -644
1500834645.852450 46145910 1 1992879 2548233 -51 -139
1500834645.854682 46148002 0 2271203 2830305 -261 -612
1500834645.857620 46151027 1 1992868 2548178 -58 -181
1500834645.859094 46151573 0 2271177 2830275 -269 -601
1500834645.861876 46155145 0 2271154 2830235 -273 -600
1500834645.863198 46156145 1 1992862 2548153 -60 -193
1500834645.865585 46158716 0 2271135 2830184 -273 -610
1500834645.867779 46161263 1 1992842 2548112 -75 -219
1500834645.869435 46162287 0 2271128 2830193 -262 -563
1500834645.872505 46165859 0 2271160 2830157 -215 -561
1500834645.873874 46166380 1 1992839 2548088 -73 -227
1500834645.876003 46169430 0 2271137 2830132 -223 -549
1500834645.878149 46171497 1 1992826 2548080 -80 -220
1500834645.879634 46173001 0 2271118 2830125 -226 -521
1500834645.883205 46176572 0 2271124 2830138 -206 -476
1500834645.884583 46176615 1 1992807 2548043 -92 -240
1500834645.886741 46180143 0 2271130 2830067 -187 -512
1500834645.888294 46181732 1 1992796 2548001 -96 -264
1500834645.890273 46183715 0 2271091 2830067 -211 -480
1500834645.893368 46186849 1 1992801 2548008 -85 -240
1500834645.894827 46187286 0 2271083 2830077 -205 -440
1500834645.897422 46190857 0 2271068 2830062 -206 -426
1500834645.898911 46191966 1 1992771 2547965 -107 -265
1500834645.900953 46194429 0 2271101 2830029 -162 -430
1500834645.903387 46197084 1 1992761 2547959 -109 -254
1500834645.904929 46198000 0 2271071 2830047 -180 -386
1500834645.908124 46201571 0 2271118 2830027 -124 -380
1500834645.909607 46202201 1 1992755 2547939 -107 -256
1500834645.911734 46205143 0 2271073 2830039 -158 -345
1500834645.913704 46207319 1 1992742 2547941 -112 -238
1500834645.915329 46208714 0 2271065 2830013 -155 -347
1500834645.918899 46212285 0 2271075 2830022 -135 -316
1500834645.920263 46212437 1 1992722 2547905 -123 -256
1500834645.922353 46215857 0 2271098 2829982 -105 -333
1500834645.924090 46217554 1 1992745 2547905 -93 -240
1500834645.925786 46219427 0 2271050 2830012 -143 -284
1500834645.929204 46222672 1 1992739 2547899 -92 -230
1500834645.930583 46222999 0 2271049 2830007 -135 -270
1500834645.933222 46226570 0 2271054 2829984 -121 -274
1500834645.934723 46227790 1 1992719 2547892 -105 -222
1500834645.936604 46230141 0 2271074 2830013 -94 -229
1500834645.939330 46232907 1 1992720 2547899 -97 -201
1500834645.940690 46233712 0 2271068 2830052 -93 -178
1500834645.943718 46237284 0 2271097 2830058 -60 -161
1500834645.945199 46238025 1 1992722 2547851 -89 -233
1500834645.947346 46240855 0 2271076 2830057 -75 -151
1500834645.949478 46243142 1 1992720 2547858 -85 -211
1500834645.950850 46244426 0 2271084 2830111 -62 -90
1500834645.954196 46247997 0 2271141 2830121 -4 -75
1500834645.955733 46248259 1 1992718 2547848 -81 -207
1500834645.957968 46251569 0 2271163 2830165 17 -29
1500834645.959661 46253377 1 1992704 2547843 -89 -198
1500834645.961630 46255140 0 2271139 2830155 -6 -36
1500834645.964854 46258494 1 1992706 2547850 -81 -179
1500834645.966050 46258711 0 2271150 2830185 5 -5
1500834645.968493 46262283 0 2271164 2830187 18 -2
1500834645.969974 46263612 1 1992720 2547855 -62 -163
1500834645.972155 46265854 0 2271178 2830227 30 36
1500834645.975002 46268730 1 1992698 2547851 -78 -156
1500834645.976491 46269425 0 2271182 2830234 32 41
1500834645.979506 46272996 0 2271206 2830256 53 60
1500834645.980714 46273847 1 1992715 2547857 -57 -140
1500834645.982677 46276567 0 2271186 2830234 31 36
1500834645.985888 46278965 1 1992699 2547852 -68 -135
1500834645.987076 46280138 0 2271196 2830292 39 89
1500834645.989859 46283709 0 2271221 2830278 60 71
1500834645.991193 46284082 1 1992706 2547840 -57 -137
1500834645.993663 46287281 0 2271215 2830296 51 84
1500834645.995479 46289199 1 1992716 2547844 -44 -124
1500834645.997140 46290853 0 2271207 2830311 41 93
1500834646.000545 46294317 1 1992709 2547861 -47 -100
1500834646.001835 46294425 0 2271223 2830296 54 74
1500834646.004253 46297996 0 2271203 2830278 32 53
1500834646.005527 46299435 1 1992713 2547855 -40 -99
1500834646.007750 46301568 0 2271204 2830318 31 88
1500834646.010690 46304553 1 1992710 2547861 -40 -87
1500834646.012059 46305139 0 2271215 2830339 40 103
1500834646.014869 46308711 0 2271222 2830332 45 90
1500834646.016203 46309670 1 1992702 2547876 -45 -67
1500834646.018408 46312282 0 2271207 2830335 29 88
1500834646.020875 46314788 1 1992718 2547879 -27 -60
1500834646.022311 46315854 0 2271232 2830378 51 123
1500834646.025500 46319425 0 2271261 2830393 75 130
1500834646.026895 46319905 1 1992715 2547884 -28 -51
1500834646.029113 46322997 0 2271257 2830413 67 141
1500834646.031271 46325023 1 1992732 2547890 -10 -42
1500834646.032722 46326569 0 2271261 2830420 67 139
1500834646.036226 46330140 0 2271255 2830449 58 158
1500834646.037847 46330143 1 1992720 2547909 -20 -21
1500834646.039709 46333712 0 2271302 2830437 99 137
1500834646.041188 46335260 1 1992741 2547907 1 -21
1500834646.043698 46337283 0 2271282 2830495 75 183
1500834646.046459 46340379 1 1992732 2547905 -7 -21
1500834646.047766 46340855 0 2271292 2830520 80 195
1500834646.050585 46344426 0 2271296 2830532 79 195
1500834646.051790 46345497 1 1992738 2547909 0 -15
1500834646.054180 46347998 0 2271313 2830537 90 188
1500834646.056501 46350616 1 1992730 2547918 -7 -5
1500834646.057944 46351570 0 2271336 2830574 106 211
1500834646.061069 46355142 0 2271348 2830589 111 212
1500834646.062631 46355734 1 1992731 2547904 -5 -17
1500834646.064706 46358714 0 2271325 2830585 83 195
1500834646.066729 46360852 1 1992715 2547930 -19 9
1500834646.068199 46362285 0 2271337 2830609 90 206
1500834646.071857 46365857 0 2271357 2830604 104 189
1500834646.073219 46365970 1 1992718 2547913 -15 -7
1500834646.075312 46369428 0 2271378 2830603 118 177
1500834646.076950 46371088 1 1992709 2547911 -22 -8
1500834646.078854 46372999 0 2271342 2830621 77 183
1500834646.082115 46376206 1 1992709 2547908 -20 -10
1500834646.083476 46376571 0 2271349 2830635 79 185
1500834646.085982 46380142 0 2271345 2830613 71 153
1500834646.087297 46381324 1 1992717 2547912 -11 -5
1500834646.089542 46383713 0 2271338 2830597 60 129
1500834646.092161 46386442 1 1992721 2547921 -6 4
1500834646.093534 46387284 0 2271333 2830626 52 149
1500834646.096679 46390856 0 2271355 2830600 70 116
1500834646.098026 46391560 1 1992701 2547912 -24 -4
1500834646.100194 46394427 0 2271311 2830574 25 85
1500834646.102593 46396678 1 1992708 2547910 -15 -5
1500834646.103859 46397999 0 2271324 2830599 36 104
1500834646.107319 46401571 0 2271323 2830577 33 77
1500834646.108753 46401797 1 1992700 2547911 -21 -3
1500834646.111118 46405143 0 2271349 2830554 56 51
1500834646.112776 46406916 1 1992718 2547913 -2 0
1500834646.114607 46408715 0 2271315 2830552 21 46
1500834646.117827 46412035 1 1992725 2547912 5 0
1500834646.119155 46412287 0 2271304 2830557 10 48
1500834646.121668 46415859 0 2271325 2830530 30 20
1500834646.122842 46417153 1 1992723 2547916 3 4
1500834646.125396 46419431 0 2271298 2830571 3 58
1500834646.128111 46422272 1 1992725 2547922 5 10
1500834646.129328 46423003 0 2271334 2830600 37 82
1500834646.132262 46426575 0 2271342 2830613 43 90
1500834646.133748 46427390 1 1992740 2547953 19 39
1500834646.135893 46430147 0 2271324 2830604 24 76
1500834646.138037 46432509 1 1992738 2547967 16 50
1500834646.139587 46433718 0 2271346 2830641 44 106
1500834646.143037 46437290 0 2271366 2830634 60 93
1500834646.144538 46437627 1 1992757 2547979 33 59
1500834646.146413 46440861 0 2271383 2830637 73 90
1500834646.148564 46442746 1 1992747 2547996 22 72
1500834646.150315 46444433 0 2271341 2830672 30 118
1500834646.153784 46447864 1 1992761 2548007 34 78
1500834646.154744 46448005 0 2271380 2830698 65 135
1500834646.157241 46451576 0 2271375 2830671 57 102
1500834646.158613 46452982 1 1992779 2548026 49 91
1500834646.161015 46455148 0 2271370 2830721 49 143
1500834646.163628 46458100 1 1992791 2548023 58 83
1500834646.165038 46458719 0 2271377 2830741 53 153
1500834646.167985 46462291 0 2271390 2830701 62 106
1500834646.169263 46463218 1 1992766 2548025 31 80
1500834646.171745 46465863 0 2271374 2830699 44 98
1500834646.173804 46468336 1 1992783 2548032 45 82
1500834646.175616 46469434 0 2271386 2830764 53 153
1500834646.178692 46473006 0 2271399 2830737 62 119
1500834646.179994 46473454 1 1992775 2548003 35 50
1500834646.182351 46476577 0 2271390 2830751 50 125
1500834646.184030 46478572 1 1992765 2548000 24 45
1500834646.185930 46480149 0 2271380 2830754 38 120
1500834646.189452 46483690 1 1992736 2547993 -4 36
1500834646.190626 46483721 0 2271396 2830747 51 106
1500834646.194744 46487292 0 2271393 2830722 45 76
1500834646.195656 46488807 1 1992745 2547974 5 16
1500834646.196460 46490864 0 2271413 2830761 61 108
1500834646.199302 46493925 1 1992735 2547953 -4 -4
1500834646.200747 46494435 0 2271392 2830768 38 108
1500834646.203351 46498007 0 2271408 2830748 51 83
1500834646.204717 46499043 1 1992743 2547965 4 8
1500834646.207033 46501578 0 2271378 2830742 20 73
1500834646.209563 46504161 1 1992736 2547982 -2 24
1500834646.210882 46505150 0 2271396 2830798 36 121
1500834646.214171 46508721 0 2271461 2830818 95 133
1500834646.215327 46509279 1 1992741 2547959 3 1
1500834646.217584 46512292 0 2271415 2830822 46 129
1500834646.219584 46514397 1 1992740 2547972 2 14
1500834646.221205 46515863 0 2271431 2830853 59 150
1500834646.224749 46519434 0 2271443 2830872 67 159
1500834646.226105 46519515 1 1992736 2547980 -1 21
1500834646.228450 46523005 0 2271456 2830871 75 149
1500834646.229875 46524632 1 1992759 2547997 21 36
1500834646.231882 46526576 0 2271450 2830905 65 172
1500834646.235010 46529750 1 1992752 2547996 14 33
1500834646.236370 46530147 0 2271451 2830910 62 166
1500834646.239128 46533718 0 2271467 2830919 74 165
1500834646.240348 46534867 1 1992739 2548020 1 54
1500834646.242631 46537289 0 2271456 2830947 60 181
1500834646.245163 46539985 1 1992743 2548030 5 60
1500834646.246871 46540859 0 2271490 2830971 89 193
1500834646.249776 46544430 0 2271519 2830993 111 202
1500834646.251294 46545102 1 1992774 2548035 34 61
1500834646.253247 46548001 0 2271477 2830996 65 193
1500834646.255374 46550220 1 1992771 2548043 30 65
1500834646.256897 46551572 0 2271524 2831024 105 208
1500834646.260416 46555143 0 2271520 2831030 95 201
1500834646.261692 46555338 1 1992769 2548081 27 97
1500834646.263998 46558714 0 2271556 2831043 123 201
1500834646.265692 46560456 1 1992790 2548092 45 102
1500834646.267484 46562285 0 2271516 2831038 78 184
1500834646.270929 46565573 1 1992781 2548105 34 108
1500834646.272116 46565856 0 2271513 2831040 71 175
1500834646.274814 46569426 0 2271527 2831033 80 158
1500834646.275993 46570690 1 1992801 2548114 51 110
1500834646.278149 46572997 0 2271516 2831050 65 165
1500834646.280836 46575808 1 1992786 2548123 34 112
1500834646.282399 46576568 0 2271509 2831077 55 180
1500834646.285370 46580139 0 2271534 2831066 75 159
1500834646.286903 46580926 1 1992816 2548136 60 118
1500834646.289011 46583711 0 2271516 2831057 54 141
1500834646.291111 46586044 1 1992811 2548160 52 134
1500834646.292590 46587283 0 2271522 2831100 57 173
1500834646.296159 46590854 0 2271547 2831088 77 151
1500834646.297605 46591162 1 1992805 2548130 44 98
1500834646.299502 46594425 0 2271570 2831105 94 158
1500834646.301366 46596280 1 1992808 2548147 45 108
1500834646.303382 46597997 0 2271549 2831116 69 159
1500834646.306739 46601398 1 1992792 2548158 28 112
1500834646.307931 46601568 0 2271562 2831134 77 166
1500834646.310442 46605140 0 2271548 2831122 60 145
1500834646.311788 46606516 1 1992818 2548167 51 114
1500834646.313974 46608711 0 2271560 2831139 68 152
1500834646.316838 46611633 1 1992805 2548161 36 102
1500834646.318240 46612283 0 2271562 2831159 66 162
1500834646.321028 46615854 0 2271561 2831153 61 147
1500834646.322229 46616751 1 1992824 2548177 52 111
1500834646.324559 46619426 0 2271551 2831119 48 106
1500834646.327101 46621869 1 1992806 2548189 32 116
1500834646.328535 46622998 0 2271569 2831149 62 128
1500834646.331754 46626569 0 2271586 2831177 75 147
1500834646.333072 46626988 1 1992794 2548180 19 101
1500834646.335439 46630141 0 2271575 2831162 60 124
1500834646.337207 46632106 1 1992813 2548180 36 95
1500834646.338910 46633712 0 2271558 2831155 41 110
1500834646.342265 46637225 1 1992810 2548185 31 94
1500834646.343736 46637284 0 2271550 2831174 31 121
1500834646.346010 46640856 0 2271567 2831130 45 73
1500834646.347321 46642343 1 1992821 2548176 40 80
1500834646.349477 46644428 0 2271551 2831173 28 109
1500834646.352478 46647462 1 1992806 2548191 24 90
1500834646.353789 46647999 0 2271554 2831150 30 81
1500834646.356604 46651571 0 2271542 2831155 17 81
1500834646.357923 46652580 1 1992792 2548197 10 90
1500834646.360048 46655142 0 2271529 2831119 4 43
1500834646.362558 46657698 1 1992827 2548206 43 93
1500834646.364021 46658713 0 2271523 2831142 -1 62
1500834646.367284 46662284 0 2271573 2831123 46 41
1500834646.368563 46662816 1 1992812 2548206 27 88
1500834646.370889 46665855 0 2271532 2831132 5 47
1500834646.372763 46667934 1 1992809 2548223 23 99
1500834646.374547 46669427 0 2271540 2831160 13 71
1500834646.378309 46672999 0 2271536 2831149 9 57
1500834646.379616 46673053 1 1992825 2548235 37 105
1500834646.381662 46676570 0 2271572 2831142 43 47
1500834646.383222 46678171 1 1992842 2548252 51 115
1500834646.385028 46680141 0 2271540 2831177 11 77
1500834646.388212 46683289 1 1992843 2548268 49 123
1500834646.389516 46683713 0 2271578 2831199 46 93
1500834646.392214 46687284 0 2271540 2831175 8 65
1500834646.393514 46688407 1 1992856 2548275 59 122
1500834646.395693 46690855 0 2271563 2831168 30 55
1500834646.398634 46693525 1 1992847 2548302 47 140
1500834646.399959 46694426 0 2271568 2831203 33 85
1500834646.402972 46697998 0 2271593 2831226 55 102
1500834646.404248 46698643 1 1992859 2548284 56 115
1500834646.406416 46701570 0 2271552 2831234 14 104
1500834646.408480 46703761 1 1992863 2548302 57 125
1500834646.409960 46705141 0 2271576 2831259 36 121
1500834646.413675 46708713 0 2271582 2831271 40 125
1500834646.415064 46708879 1 1992858 2548317 49 132
1500834646.417072 46712284 0 2271624 2831266 77 113
1500834646.418785 46713996 1 1992861 2548320 49 127
1500834646.420682 46715855 0 2271577 2831299 29 137
1500834646.423834 46719114 1 1992862 2548311 47 111
1500834646.425275 46719426 0 2271586 2831282 36 113
1500834646.430707 46722997 0 2271591 2831271 39 96
1500834646.431680 46724232 1 1992854 2548329 37 121
1500834646.432728 46726568 0 2271589 2831278 35 97
1500834646.434078 46729350 1 1992859 2548327 40 112
1500834646.435455 46730140 0 2271604 2831273 47 87
1500834646.438617 46733711 0 2271622 2831271 61 80
1500834646.439860 46734468 1 1992867 2548328 45 106
1500834646.441917 46737283 0 2271569 2831291 8 94
1500834646.444344 46739587 1 1992866 2548360 42 130
1500834646.445686 46740854 0 2271596 2831300 33 97
1500834646.449415 46744426 0 2271597 2831261 32 55
1500834646.450681 46744705 1 1992879 2548361 52 123
1500834646.452663 46747997 0 2271618 2831279 50 69
1500834646.454434 46749823 1 1992875 2548363 45 118
1500834646.456200 46751569 0 2271589 2831265 20 52
1500834646.459707 46754940 1 1992887 2548391 54 137
1500834646.461033 46755141 0 2271579 2831268 10 52
1500834646.463392 46758712 0 2271590 2831235 20 18
1500834646.464712 46760058 1 1992900 2548375 63 114
1500834646.466947 46762283 0 2271579 2831249 9 30
1500834646.469824 46765177 1 1992882 2548368 43 101
1500834646.471252 46765854 0 2271576 2831259 6 38
1500834646.474176 46769425 0 2271591 2831264 20 41
1500834646.475588 46770295 1 1992865 2548369 25 96
1500834646.477801 46772997 0 2271580 2831228 9 5
1500834646.480068 46775413 1 1992879 2548365 37 87
1500834646.481476 46776568 0 2271583 2831289 12 62
1500834646.484767 46780139 0 2271605 2831283 32 53
1500834646.486187 46780531 1 1992863 2548361 20 78
1500834646.488410 46783711 0 2271604 2831309 30 75
1500834646.490200 46785649 1 1992880 2548370 35 82
1500834646.491857 46787282 0 2271603 2831321 28 82
1500834646.495636 46790767 1 1992864 2548378 18 85
1500834646.496782 46790854 0 2271592 2831343 16 98
1500834646.499260 46794426 0 2271623 2831319 45 70
1500834646.500362 46795885 1 1992877 2548393 30 94
1500834646.502744 46797997 0 2271621 2831373 41 117
1500834646.505574 46801002 1 1992868 2548394 20 90
1500834646.507035 46801568 0 2271628 2831373 45 110
1500834646.509696 46805140 0 2271625 2831392 40 121
1500834646.511252 46806120 1 1992867 2548387 18 78
1500834646.513380 46808711 0 2271640 2831369 52 92
1500834646.515677 46811238 1 1992871 2548413 21 98
1500834646.517146 46812283 0 2271652 2831443 60 156
1500834646.520387 46815854 0 2271691 2831437 93 141
1500834646.521866 46816356 1 1992859 2548417 9 96
1500834646.524114 46819426 0 2271668 2831438 66 134
1500834646.525839 46821474 1 1992876 2548407 25 81
1500834646.527436 46822997 0 2271676 2831453 70 140
1500834646.531299 46826569 0 2271667 2831439 58 119
1500834646.532626 46826592 1 1992883 2548393 30 63
1500834646.534668 46830140 0 2271680 2831384 67 60
1500834646.536087 46831711 1 1992884 2548410 30 75
1500834646.538238 46833712 0 2271638 2831388 24 60
1500834646.542494 46836829 1 1992874 2548424 19 84
1500834646.543345 46837284 0 2271626 2831381 12 50
1500834646.545360 46840855 0 2271609 2831307 -4 -22
1500834646.546813 46841947 1 1992872 2548409 16 65
1500834646.548870 46844427 0 2271576 2831231 -34 -91
1500834646.551814 46847065 1 1992868 2548379 12 33
1500834646.552823 46847998 0 2271567 2831218 -40 -97
1500834646.556226 46851569 0 2271568 2831116 -36 -186
1500834646.557373 46852183 1 1992882 2548371 25 24
1500834646.559595 46855141 0 2271483 2831074 -113 -213
1500834646.561599 46857302 1 1992857 2548360 0 13
1500834646.563129 46858713 0 2271483 2831003 -105 -266
1500834646.566747 46862284 0 2271445 2830939 -134 -309
1500834646.568042 46862420 1 1992864 2548337 7 -9
1500834646.570291 46865856 0 2271435 2830831 -135 -390
1500834646.571919 46867538 1 1992849 2548312 -7 -31
1500834646.573997 46869427 0 2271373 2830776 -184 -417
1500834646.576953 46872657 1 1992848 2548283 -7 -56
1500834646.578625 46872999 0 2271352 2830724 -192 -439
1500834646.580999 46876571 0 2271312 2830634 -217 -495
1500834646.582442 46877775 1 1992840 2548270 -14 -64
1500834646.584674 46880142 0 2271287 2830565 -226 -528
1500834646.587102 46882893 1 1992817 2548227 -34 -100
1500834646.588703 46883714 0 2271274 2830540 -224 -518
1500834646.591702 46887286 0 2271270 2830469 -213 -552
1500834646.593089 46888011 1 1992818 2548199 -30 -120
1500834646.595316 46890858 0 2271199 2830417 -266 -566
1500834646.597599 46893129 1 1992788 2548154 -56 -154
1500834646.598973 46894429 0 2271207 2830397 -241 -549
1500834646.602489 46898002 0 2271196 2830338 -236 -570
1500834646.603746 46898248 1 1992768 2548104 -71 -191
1500834646.605886 46901573 0 2271195 2830320 -222 -551
1500834646.607636 46903366 1 1992734 2548056 -98 -224
1500834646.609456 46905145 0 2271148 2830288 -252 -546
1500834646.612854 46908484 1 1992741 2548044 -85 -221
1500834646.614240 46908717 0 2271149 2830232 -235 -564
1500834646.616794 46912288 0 2271115 2830178 -252 -579
1500834646.618195 46913603 1 1992741 2547992 -79 -255
1500834646.620309 46915860 0 2271122 2830162 -229 -557
1500834646.622965 46918721 1 1992709 2547968 -104 -261
1500834646.624471 46919431 0 2271109 2830180 -226 -505
1500834646.627424 46923003 0 2271126 2830146 -195 -505
1500834646.628881 46923840 1 1992707 2547931 -99 -279
1500834646.631052 46926575 0 2271080 2830096 -225 -520
1500834646.633375 46928958 1 1992694 2547919 -105 -272
1500834646.634707 46930146 0 2271076 2830093 -214 -490
1500834646.638004 46933718 0 2271088 2830062 -189 -488
1500834646.639417 46934075 1 1992682 2547891 -109 -281
1500834646.641598 46937289 0 2271083 2830081 -181 -439
1500834646.643538 46939193 1 1992672 2547862 -111 -290
1500834646.645012 46940861 0 2271050 2830081 -200 -411
1500834646.648666 46944311 1 1992672 2547863 -104 -270
1500834646.650044 46944433 0 2271070 2830079 -168 -387
1500834646.652267 46948005 0 2271072 2830041 -155 -398
1500834646.653610 46949430 1 1992679 2547840 -90 -274
1500834646.655683 46951577 0 2271082 2830092 -135 -325
1500834646.658622 46954548 1 1992663 2547833 -99 -263
1500834646.660122 46955149 0 2271085 2830098 -123 -299
1500834646.662869 46958720 0 2271080 2830114 -120 -265
1500834646.664383 46959666 1 1992662 2547838 -93 -241
1500834646.666438 46962292 0 2271076 2830091 -116 -270
1500834646.668825 46964784 1 1992649 2547815 -99 -247
1500834646.670340 46965864 0 2271111 2830149 -75 -198
1500834646.673597 46969435 0 2271118 2830151 -63 -183
1500834646.675112 46969901 1 1992660 2547809 -82 -237
1500834646.677120 46973007 0 2271140 2830199 -38 -126
1500834646.678991 46975019 1 1992651 2547821 -85 -210
1500834646.680654 46976579 0 2271118 2830213 -56 -105
1500834646.684092 46980137 1 1992640 2547808 -90 -209
1500834646.685613 46980150 0 2271148 2830229 -24 -83
1500834646.687746 46983722 0 2271168 2830226 -3 -80
1500834646.689172 46985254 1 1992653 2547791 -72 -211
1500834646.691408 46987293 0 2271146 2830259 -23 -44
1500834646.694625 46990372 1 1992629 2547791 -90 -197
1500834646.695752 46990865 0 2271163 2830268 -5 -32
1500834646.698725 46994437 0 2271166 2830250 -1 -46
1500834646.699950 46995490 1 1992641 2547770 -73 -204
1500834646.701876 46998008 0 2271158 2830248 -8 -45
1500834646.704539 47000608 1 1992624 2547764 -84 -196
1500834646.706121 47001579 0 2271178 2830300 12 7
1500834646.709128 47005150 0 2271219 2830284 50 -8
1500834646.710472 47005725 1 1992638 2547741 -65 -205
1500834646.712531 47008722 0 2271178 2830287 9 -4
1500834646.714819 47010843 1 1992623 2547735 -75 -197
1500834646.716180 47012293 0 2271172 2830301 3 10
1500834646.719845 47015865 0 2271183 2830289 14 -1
1500834646.721139 47015961 1 1992602 2547711 -90 -207
1500834646.723273 47019436 0 2271193 2830285 23 -4
1500834646.725072 47021079 1 1992607 2547729 -79 -177
1500834646.726826 47023007 0 2271175 2830291 5 2
1500834646.730185 47026197 1 1992583 2547702 -96 -191
1500834646.731513 47026579 0 2271175 2830286 5 -2
1500834646.734003 47030150 0 2271161 2830272 -8 -15
1500834646.735459 47031314 1 1992592 2547700 -81 -180
1500834646.737572 47033721 0 2271181 2830277 12 -9
1500834646.740197 47036432 1 1992587 2547689 -80 -179
1500834646.741721 47037292 0 2271194 2830319 24 31
1500834646.744825 47040863 0 2271214 2830321 42 31
1500834646.746195 47041549 1 1992604 2547698 -59 -159
1500834646.748256 47044434 0 2271191 2830335 18 43
1500834646.750593 47046667 1 1992584 2547700 -74 -147
1500834646.751936 47048005 0 2271204 2830358 30 62
1500834646.755307 47051577 0 2271234 2830389 57 88
1500834646.757004 47051785 1 1992605 2547704 -49 -134
1500834646.759102 47055149 0 2271281 2830411 98 104
1500834646.760870 47056902 1 1992614 2547703 -37 -126
1500834646.762597 47058720 0 2271254 2830454 67 138
1500834646.766016 47062020 1 1992599 2547720 -48 -102
1500834646.767237 47062292 0 2271247 2830487 57 161
1500834646.769710 47065864 0 2271262 2830481 68 146
1500834646.771212 47067137 1 1992601 2547708 -43 -106
1500834646.773253 47069435 0 2271275 2830528 76 181
1500834646.776136 47072255 1 1992607 2547723 -34 -85
1500834646.777571 47073006 0 2271305 2830547 100 188
1500834646.780490 47076578 0 2271327 2830563 115 192
1500834646.781768 47077373 1 1992614 2547709 -25 -92
1500834646.783947 47080150 0 2271285 2830581 69 197
1500834646.786346 47082491 1 1992590 2547726 -45 -70
1500834646.787580 47083722 0 2271316 2830614 94 216
1500834646.791000 47087293 0 2271358 2830642 128 229
1500834646.792396 47087609 1 1992593 2547737 -39 -55
1500834646.794639 47090865 0 2271370 2830644 132 217
1500834646.796313 47092727 1 1992595 2547754 -34 -35
1500834646.798085 47094436 0 2271344 2830672 100 230
1500834646.802454 47097845 1 1992604 2547729 -23 -56
1500834646.804025 47098008 0 2271345 2830657 95 202
1500834646.805232 47101580 0 2271346 2830631 90 165
1500834646.806526 47102963 1 1992610 2547719 -15 -61
1500834646.808806 47105151 0 2271350 2830705 89 225
1500834646.811811 47108081 1 1992606 2547734 -17 -43
1500834646.813020 47108723 0 2271342 2830697 76 204
1500834646.815920 47112295 0 2271348 2830670 77 166
1500834646.817249 47113199 1 1992597 2547742 -24 -32
1500834646.819376 47115866 0 2271342 2830652 67 139
1500834646.821773 47118316 1 1992592 2547737 -27 -34
1500834646.823283 47119438 0 2271357 2830685 77 162
1500834646.826581 47123010 0 2271368 2830688 83 155
1500834646.827914 47123434 1 1992583 2547740 -33 -29
1500834646.830162 47126581 0 2271356 2830682 67 140
1500834646.831993 47128552 1 1992596 2547740 -18 -27
1500834646.833667 47130152 0 2271340 2830680 48 130
1500834646.837182 47133669 1 1992587 2547747 -25 -18
1500834646.838540 47133724 0 2271341 2830658 46 102
1500834646.840765 47137296 0 2271341 2830628 44 68
1500834646.842310 47138787 1 1992601 2547750 -10 -14
1500834646.844256 47140867 0 2271332 2830663 33 97
1500834646.847307 47143905 1 1992623 2547760 12 -3
1500834646.848776 47144439 0 2271334 2830658 33 87
1500834646.851434 47148010 0 2271315 2830640 14 65
1500834646.852824 47149023 1 1992590 2547750 -19 -12
1500834646.855332 47151581 0 2271314 2830608 13 31
1500834646.857752 47154140 1 1992609 2547746 0 -15
1500834646.858979 47155153 0 2271316 2830637 15 57
1500834646.862183 47158725 0 2271352 2830639 48 56
1500834646.863698 47159258 1 1992600 2547746 -8 -14
1500834646.865722 47162297 0 2271328 2830638 23 52
1500834646.867787 47164375 1 1992591 2547717 -15 -40
1500834646.869236 47165868 0 2271307 2830662 2 72
1500834646.872976 47169439 0 2271336 2830659 30 65
1500834646.874192 47169493 1 1992588 2547735 -16 -20
1500834646.876727 47173011 0 2271362 2830639 53 43
1500834646.878123 47174611 1 1992594 2547741 -9 -13
1500834646.880207 47176582 0 2271343 2830682 32 81
1500834646.883083 47179728 1 1992603 2547759 0 5
1500834646.884677 47180154 0 2271358 2830674 45 69
1500834646.887137 47183725 0 2271345 2830685 30 75
1500834646.888827 47184847 1 1992601 2547749 -1 -4
1500834646.890850 47187297 0 2271361 2830676 44 62
1500834646.893255 47189965 1 1992609 2547761 7 8
1500834646.894731 47190869 0 2271352 2830744 33 122
1500834646.897823 47194441 0 2271396 2830728 73 100
1500834646.899426 47195083 1 1992614 2547787 12 32
1500834646.901351 47198013 0 2271382 2830752 56 117
1500834646.903384 47200202 1 1992620 2547792 17 35
1500834646.905185 47201585 0 2271384 2830763 55 120
1500834646.908574 47205156 0 2271399 2830791 66 139
1500834646.909892 47205321 1 1992632 2547794 28 35
1500834646.912117 47208728 0 2271430 2830776 91 117
1500834646.913779 47210439 1 1992637 2547800 31 39
1500834646.915617 47212300 0 2271368 2830789 28 122
1500834646.918786 47215558 1 1992618 2547801 12 38
1500834646.920185 47215872 0 2271393 2830806 50 131
1500834646.923026 47219444 0 2271393 2830769 47 89
1500834646.924241 47220676 1 1992643 2547773 35 10
1500834646.926405 47223015 0 2271391 2830779 43 93
1500834646.929164 47225794 1 1992631 2547783 22 19
1500834646.930637 47226587 0 2271386 2830798 36 105
1500834646.933461 47230159 0 2271418 2830783 64 85
1500834646.934721 47230913 1 1992630 2547775 20 11
1500834646.936894 47233731 0 2271397 2830780 41 77
1500834646.939562 47236031 1 1992633 2547800 22 34
1500834646.940664 47237303 0 2271391 2830834 33 123
1500834646.944249 47240874 0 2271395 2830805 35 89
1500834646.945569 47241149 1 1992617 2547790 6 23
1500834646.947784 47244446 0 2271419 2830818 56 96
1500834646.949653 47246268 1 1992610 2547781 0 14
1500834646.951429 47248017 0 2271385 2830846 21 117
1500834646.954571 47251386 1 1992603 2547778 -6 11
1500834646.955998 47251588 0 2271400 2830841 34 105
1500834646.958721 47255160 0 2271413 2830814 45 74
1500834646.959853 47256504 1 1992619 2547795 10 27
1500834646.961905 47258731 0 2271419 2830865 48 118
1500834646.964982 47261622 1 1992599 2547795 -9 26
1500834646.966288 47262302 0 2271425 2830891 51 135
1500834646.969250 47265873 0 2271434 2830912 57 147
1500834646.970531 47266740 1 1992610 2547805 2 34
1500834646.972899 47269444 0 2271427 2830897 47 124
1500834646.974995 47271858 1 1992615 2547799 7 27
1500834646.976528 47273014 0 2271443 2830929 60 147
1500834646.979851 47276586 0 2271481 2830955 92 163
1500834646.981110 47276976 1 1992621 2547812 13 38
1500834646.983365 47280157 0 2271475 2830975 81 172
1500834646.985118 47282094 1 1992630 2547815 21 39
1500834646.987044 47283728 0 2271460 2831004 62 189
1500834646.990347 47287211 1 1992621 2547829 12 50
1500834646.991634 47287300 0 2271476 2831020 74 193
1500834646.993965 47290872 0 2271485 2831001 78 164
1500834646.995428 47292329 1 1992631 2547828 21 46
1500834646.997467 47294443 0 2271499 2831045 87 195
1500834647.000819 47297447 1 1992638 2547845 27 60
1500834647.001994 47298015 0 2271496 2831057 79 195
1500834647.004729 47301586 0 2271506 2831031 84 159
1500834647.006018 47302565 1 1992643 2547888 30 97
1500834647.008199 47305158 0 2271478 2831046 53 164
1500834647.010773 47307682 1 1992655 2547878 40 82
1500834647.012267 47308730 0 2271516 2831079 86 185
1500834647.015683 47312302 0 2271544 2831100 107 194
1500834647.016692 47312800 1 1992654 2547897 37 95
1500834647.018931 47315873 0 2271524 2831092 82 175
1500834647.020910 47317918 1 1992654 2547907 35 99
1500834647.022540 47319445 0 2271521 2831130 75 200
1500834647.026219 47323017 0 2271537 2831124 86 182
1500834647.027526 47323037 1 1992673 2547905 51 91
1500834647.029806 47326589 0 2271549 2831139 92 185
1500834647.031081 47328155 1 1992674 2547905 49 86
1500834647.033151 47330160 0 2271523 2831153 62 187
1500834647.036087 47333273 1 1992667 2547909 40 85
1500834647.037585 47333732 0 2271525 2831179 60 200
1500834647.040306 47337304 0 2271541 2831169 72 179
1500834647.041616 47338391 1 1992654 2547920 26 90
1500834647.044055 47340875 0 2271554 2831165 80 165
1500834647.046363 47343509 1 1992675 2547930 45 94
1500834647.047761 47344447 0 2271540 2831206 62 194
1500834647.051035 47348019 0 2271582 2831202 98 179
1500834647.052186 47348627 1 1992667 2547917 35 76
1500834647.054599 47351591 0 2271556 2831203 68 169
1500834647.056597 47353745 1 1992685 2547928 50 82
1500834647.058104 47355162 0 2271562 2831228 70 182
1500834647.061700 47358734 0 2271580 2831224 83 167
1500834647.063091 47358864 1 1992652 2547911 16 61
1500834647.065085 47362305 0 2271582 2831231 80 164
1500834647.066821 47363982 1 1992684 2547943 45 88
1500834647.068689 47365877 0 2271570 2831253 64 175
1500834647.072194 47369100 1 1992659 2547945 19 85
1500834647.073508 47369449 0 2271562 2831244 53 156
1500834647.075842 47373020 0 2271558 2831219 46 123
1500834647.077383 47374218 1 1992685 2547947 43 82
1500834647.079637 47376592 0 2271558 2831233 44 129
1500834647.082418 47379336 1 1992673 2547953 30 83
1500834647.083527 47380164 0 2271583 2831267 65 153
1500834647.086804 47383735 0 2271593 2831258 71 135
1500834647.087983 47384454 1 1992690 2547959 45 84
1500834647.090400 47387307 0 2271574 2831264 49 133
1500834647.092396 47389572 1 1992674 2547948 28 69
1500834647.093927 47390879 0 2271571 2831290 44 150
1500834647.097481 47394451 0 2271601 2831303 70 153
1500834647.098684 47394690 1 1992665 2547965 18 81
1500834647.101005 47398023 0 2271624 2831313 88 153
1500834647.102727 47399809 1 1992676 2547952 28 64
1500834647.104368 47401595 0 2271592 2831360 53 188
1500834647.107700 47404927 1 1992685 2547961 35 69
1500834647.109144 47405168 0 2271592 2831332 50 150
1500834647.111628 47408740 0 2271614 2831306 68 117
1500834647.112896 47410046 1 1992692 2547969 40 73
1500834647.115041 47412312 0 2271611 2831343 61 145
1500834647.117850 47415165 1 1992686 2547972 32 72
1500834647.119348 47415884 0 2271616 2831360 62 152
1500834647.122252 47419456 0 2271636 2831365 77 148
1500834647.123477 47420283 1 1992680 2547958 25 55
1500834647.125696 47423028 0 2271609 2831348 47 123
1500834647.128064 47425401 1 1992693 2547993 36 85
1500834647.129493 47426600 0 2271635 2831382 69 148
1500834647.132933 47430172 0 2271634 2831391 64 148
1500834647.134231 47430519 1 1992686 2548017 28 103
1500834647.136291 47433744 0 2271656 2831399 81 147
1500834647.138203 47435638 1 1992704 2548004 44 85
1500834647.139905 47437316 0 2271652 2831418 73 156
1500834647.143160 47440756 1 1992706 2548000 44 76
1500834647.144633 47440889 0 2271632 2831419 50 148
1500834647.147007 47444460 0 2271650 2831390 64 112
1500834647.148381 47445874 1 1992715 2548009 50 80
1500834647.150624 47448032 0 2271643 2831432 54 145
1500834647.153456 47450993 1 1992699 2548039 32 104
1500834647.154903 47451604 0 2271661 2831458 68 161
1500834647.157715 47455176 0 2271652 2831454 56 148
1500834647.158982 47456111 1 1992705 2548019 36 79
1500834647.161237 47458748 0 2271654 2831416 55 104
1500834647.163597 47461228 1 1992727 2548036 55 90
1500834647.165016 47462320 0 2271667 2831479 64 157
1500834647.168419 47465891 0 2271686 2831453 78 123
1500834647.169624 47466346 1 1992686 2548021 14 71
1500834647.171865 47469463 0 2271667 2831467 56 129
1500834647.173730 47471464 1 1992694 2548008 21 55
1500834647.175505 47473034 0 2271676 2831484 61 137
1500834647.178850 47476582 1 1992686 2548042 13 84
1500834647.180375 47476606 0 2271679 2831477 60 122
1500834647.182560 47480178 0 2271673 2831435 51 75
1500834647.183995 47481700 1 1992699 2548007 25 46
1500834647.186191 47483750 0 2271656 2831478 32 111
1500834647.189155 47486818 1 1992690 2548018 15 54
1500834647.190479 47487322 0 2271661 2831465 35 92
1500834647.193279 47490894 0 2271672 2831465 44 87
1500834647.194576 47491936 1 1992708 2548032 31 64
1500834647.196637 47494465 0 2271660 2831436 30 55
1500834647.199162 47497054 1 1992708 2548037 30 65
1500834647.200709 47498037 0 2271670 2831467 38 81
1500834647.203859 47501609 0 2271697 2831464 61 74
1500834647.205205 47502173 1 1992715 2548029 35 54
1500834647.207458 47505180 0 2271653 2831483 16 88
1500834647.209400 47507291 1 1992703 2548041 22 62
1500834647.210938 47508752 0 2271661 2831505 23 104
1500834647.214560 47512324 0 2271678 2831499 38 92
1500834647.215768 47512409 1 1992704 2548071 22 87
1500834647.218041 47515896 0 2271717 2831502 73 90
1500834647.219709 47517527 1 1992703 2548083 20 93
1500834647.221650 47519467 0 2271697 2831527 50 108
1500834647.224732 47522645 1 1992709 2548104 25 107
1500834647.226142 47523039 0 2271689 2831556 40 129
1500834647.228734 47526611 0 2271677 2831545 27 111
1500834647.230159 47527764 1 1992718 2548107 32 104
1500834647.232273 47530183 0 2271680 2831537 29 97
1500834647.234963 47532881 1 1992736 2548105 47 96
1500834647.236420 47533754 0 2271713 2831587 59 138
1500834647.239430 47537326 0 2271744 2831574 85 118
1500834647.240763 47537999 1 1992743 2548117 51 102
1500834647.242973 47540898 0 2271692 2831585 31 121
1500834647.245074 47543117 1 1992744 2548135 49 113
1500834647.246587 47544470 0 2271712 2831598 48 126
1500834647.250171 47548042 0 2271712 2831606 45 126
1500834647.251513 47548236 1 1992731 2548126 34 98
1500834647.253725 47551614 0 2271755 2831606 83 119
1500834647.255332 47553354 1 1992744 2548144 45 109
1500834647.257373 47555186 0 2271716 2831588 42 95
1500834647.260386 47558472 1 1992740 2548116 39 76
1500834647.261856 47558758 0 2271720 2831574 44 76
1500834647.264211 47562330 0 2271683 2831528 7 29
1500834647.265652 47563591 1 1992733 2548102 30 59
1500834647.267920 47565902 0 2271670 2831501 -5 2
1500834647.270661 47568709 1 1992728 2548074 24 30
1500834647.272108 47569474 0 2271654 2831454 -19 -42
1500834647.274966 47573046 0 2271641 2831367 -30 -120
1500834647.276325 47573827 1 1992716 2548050 12 6
1500834647.278579 47576617 0 2271580 2831266 -85 -207
1500834647.280669 47578945 1 1992703 2548039 0 -4
1500834647.282181 47580189 0 2271546 2831196 -111 -259
1500834647.286239 47583761 0 2271511 2831066 -136 -364
1500834647.287115 47584064 1 1992677 2547989 -24 -50
1500834647.289326 47587333 0 2271474 2831028 -162 -376
1500834647.290938 47589181 1 1992680 2547954 -19 -79
1500834647.292819 47590905 0 2271422 2830944 -200 -431
1500834647.296191 47594299 1 1992649 2547907 -46 -118
1500834647.297718 47594477 0 2271417 2830872 -192 -471
1500834647.299964 47598048 0 2271361 2830756 -232 -550
1500834647.301333 47599417 1 1992648 2547879 -44 -136
1500834647.303623 47601620 0 2271337 2830727 -240 -542
1500834647.306315 47604536 1 1992627 2547828 -60 -175
1500834647.307856 47605192 0 2271285 2830660 -273 -570
1500834647.310635 47608764 0 2271292 2830595 -249 -595
1500834647.312116 47609654 1 1992611 2547799 -71 -191
1500834647.314182 47612336 0 2271242 2830505 -280 -642
1500834647.316583 47614772 1 1992584 2547773 -91 -203
1500834647.318054 47615907 0 2271242 2830481 -262 -624
1500834647.321396 47619479 0 2271225 2830443 -261 -620
1500834647.322702 47619889 1 1992598 2547742 -72 -219
1500834647.324792 47623051 0 2271218 2830418 -251 -604
1500834647.326662 47625007 1 1992568 2547691 -95 -253
1500834647.328399 47626622 0 2271182 2830387 -269 -595
1500834647.331799 47630124 1 1992540 2547661 -115 -265
1500834647.333591 47630194 0 2271171 2830351 -262 -591
1500834647.335610 47633766 0 2271166 2830285 -250 -615
1500834647.336928 47635242 1 1992549 2547632 -99 -275
1500834647.339033 47637338 0 2271165 2830308 -235 -555
1500834647.342074 47640359 1 1992525 2547615 -115 -273
1500834647.343529 47640910 0 2271140 2830273 -243 -553
1500834647.346179 47644482 0 2271109 2830221 -256 -567
1500834647.347639 47645477 1 1992505 2547587 -126 -282
1500834647.349791 47648054 0 2271099 2830189 -249 -561
1500834647.352375 47650595 1 1992506 2547528 -117 -319
1500834647.353796 47651626 0 2271106 2830221 -226 -495
1500834647.356910 47655198 0 2271132 2830177 -187 -505
1500834647.358269 47655713 1 1992498 2547513 -117 -313
1500834647.360389 47658770 0 2271085 2830173 -219 -477
1500834647.362396 47660831 1 1992483 2547483 -123 -321
1500834647.364003 47662342 0 2271073 2830141 -216 -477
1500834647.367545 47665914 0 2271092 2830108 -184 -478
1500834647.369036 47665949 1 1992478 2547480 -120 -303
1500834647.371267 47669485 0 2271113 2830098 -152 -457
1500834647.372703 47671067 1 1992490 2547464 -101 -299
1500834647.374679 47673056 0 2271082 2830131 -171 -397
1500834647.377882 47676185 1 1992466 2547461 -117 -283
1500834647.379324 47676628 0 2271080 2830109 -162 -392
1500834647.381826 47680199 0 2271056 2830117 -174 -360
1500834647.383276 47681302 1 1992454 2547445 -120 -280
1500834647.385426 47683771 0 2271085 2830080 -135 -372
1500834647.389285 47686420 1 1992442 2547427 -123 -279
1500834647.389794 47687342 0 2271084 2830135 -127 -297
1500834647.392472 47690913 0 2271112 2830125 -92 -287
1500834647.393917 47691538 1 1992470 2547421 -89 -267
1500834647.396032 47694485 0 2271094 2830133 -103 -261
1500834647.398163 47696656 1 1992456 2547418 -96 -253
1500834647.399659 47698056 0 2271101 2830162 -90 -217
1500834647.403204 47701628 0 2271112 2830170 -74 -195
1500834647.404526 47701774 1 1992441 2547413 -104 -241
1500834647.406701 47705200 0 2271154 2830198 -30 -156
1500834647.408298 47706892 1 1992440 2547405 -98 -233
1500834647.410268 47708772 0 2271129 2830202 -51 -142
1500834647.413384 47712009 1 1992432 2547392 -99 -230
1500834647.414958 47712343 0 2271129 2830219 -47 -117
1500834647.417532 47715915 0 2271155 2830221 -19 -107
1500834647.418815 47717127 1 1992446 2547353 -79 -252
1500834647.420928 47719486 0 2271143 2830231 -29 -90
1500834647.423744 47722245 1 1992424 2547362 -94 -227
1500834647.425168 47723058 0 2271148 2830265 -22 -52
1500834647.428081 47726630 0 2271161 2830279 -8 -35
1500834647.429436 47727363 1 1992417 2547372 -94 -203
1500834647.433953 47730201 0 2271158 2830268 -10 -43
1500834647.434650 47732481 1 1992410 2547350 -94 -210
1500834647.435357 47733773 0 2271173 2830279 5 -30
1500834647.438853 47737345 0 2271184 2830290 15 -17
1500834647.440180 47737599 1 1992419 2547328 -79 -217
1500834647.442347 47740916 0 2271202 2830305 31 -1
1500834647.444067 47742717 1 1992415 2547319 -77 -211
1500834647.445824 47744488 0 2271175 2830305 4 0
1500834647.449259 47747834 1 1992394 2547316 -91 -200
1500834647.450619 47748060 0 2271188 2830313 16 8
1500834647.453014 47751632 0 2271181 2830285 9 -18
1500834647.454502 47752952 1 1992403 2547317 -76 -186
1500834647.456458 47755203 0 2271174 2830303 2 0
1500834647.459476 47758070 1 1992387 2547314 -86 -177
1500834647.460819 47758775 0 2271197 2830306 24 3
1500834647.463757 47762347 0 2271205 2830310 30 7
1500834647.465043 47763189 1 1992401 2547319 -67 -161
1500834647.467222 47765919 0 2271197 2830304 21 1
1500834647.469637 47768307 1 1992405 2547323 -59 -147
1500834647.471120 47769490 0 2271195 2830360 18 54
1500834647.474337 47773062 0 2271229 2830368 49 59
1500834647.475805 47773425 1 1992414 2547334 -46 -127
1500834647.477958 47776634 0 2271259 2830388 75 75
1500834647.479812 47778544 1 1992411 2547337 -45 -116
1500834647.481457 47780205 0 2271220 2830399 34 81
1500834647.484942 47783662 1 1992409 2547327 -44 -118
1500834647.486368 47783777 0 2271241 2830425 52 101
1500834647.488591 47787349 0 2271255 2830427 62 97
1500834647.489933 47788780 1 1992431 2547344 -20 -94
1500834647.492176 47790921 0 2271255 2830486 59 147
1500834647.495059 47793898 1 1992425 2547374 -24 -60
1500834647.496561 47794492 0 2271282 2830491 81 143
1500834647.499404 47798064 0 2271280 2830515 75 157
1500834647.500707 47799017 1 1992460 2547388 11 -43
1500834647.502849 47801636 0 2271263 2830507 55 140
1500834647.505236 47804135 1 1992455 2547387 6 -41
1500834647.506702 47805208 0 2271299 2830573 86 194
1500834647.509972 47808780 0 2271343 2830591 122 199
1500834647.511295 47809253 1 1992452 2547404 3 -22
1500834647.513568 47812351 0 2271324 2830618 97 212
1500834647.515504 47814372 1 1992450 2547403 1 -21
1500834647.517109 47815923 0 2271342 2830626 108 207
1500834647.520807 47819495 0 2271330 2830626 90 195
1500834647.522059 47819491 1 1992436 2547388 -12 -33
1500834647.524175 47823066 0 2271340 2830619 94 177
1500834647.525633 47824610 1 1992448 2547382 0 -36
1500834647.527823 47826638 0 2271319 2830674 69 218
1500834647.530883 47829729 1 1992439 2547384 -8 -31
1500834647.532183 47830210 0 2271332 2830681 77 211
1500834647.535016 47833781 0 2271324 2830652 65 171
1500834647.536308 47834848 1 1992444 2547395 -2 -18
1500834647.538470 47837353 0 2271328 2830632 65 142
1500834647.540929 47839966 1 1992444 2547366 -1 -44
1500834647.542494 47840924 0 2271358 2830661 90 161
1500834647.545563 47844496 0 2271377 2830677 103 166
1500834647.546942 47845085 1 1992448 2547381 3 -27
1500834647.549223 47848068 0 2271342 2830680 64 159
1500834647.551236 47850203 1 1992428 2547372 -15 -33
1500834647.552710 47851640 0 2271338 2830671 57 141
1500834647.556219 47855212 0 2271364 2830659 78 121
1500834647.557554 47855322 1 1992435 2547355 -7 -46
1500834647.559804 47858783 0 2271377 2830653 86 108
1500834647.561417 47860440 1 1992454 2547365 12 -33
1500834647.563347 47862354 0 2271349 2830685 55 132
1500834647.566572 47865558 1 1992442 2547356 0 -39
1500834647.567920 47865926 0 2271336 2830697 40 135
1500834647.570456 47869497 0 2271340 2830666 42 98
1500834647.571780 47870677 1 1992445 2547360 3 -32
1500834647.574067 47873068 0 2271343 2830672 43 98
1500834647.576674 47875795 1 1992434 2547348 -7 -41
1500834647.578159 47876640 0 2271349 2830708 46 126
1500834647.581274 47880212 0 2271389 2830693 81 105
1500834647.582578 47880913 1 1992438 2547350 -2 -36
1500834647.584698 47883783 0 2271340 2830693 30 99
1500834647.586962 47886032 1 1992420 2547335 -18 -47
1500834647.588315 47887355 0 2271350 2830691 38 91
1500834647.591845 47890926 0 2271361 2830686 46 81
1500834647.593214 47891150 1 1992429 2547327 -8 -51
1500834647.595424 47894497 0 2271369 2830697 51 87
1500834647.597060 47896268 1 1992428 2547345 -8 -30
1500834647.599002 47898069 0 2271345 2830685 26 71
1500834647.602193 47901387 1 1992421 2547334 -14 -38
1500834647.603696 47901641 0 2271360 2830686 39 68
1500834647.606076 47905212 0 2271348 2830671 26 50
1500834647.607435 47906505 1 1992427 2547350 -7 -20
1500834647.609671 47908784 0 2271348 2830697 25 72
1500834647.612451 47911623 1 1992431 2547348 -2 -20
1500834647.613845 47912355 0 2271374 2830704 48 75
1500834647.616769 47915926 0 2271396 2830696 66 63
1500834647.618068 47916741 1 1992442 2547370 9 2
1500834647.620303 47919498 0 2271352 2830702 21 65
1500834647.622603 47921860 1 1992441 2547357 8 -10
1500834647.624087 47923070 0 2271350 2830719 18 77
1500834647.627622 47926641 0 2271366 2830719 32 73
1500834647.628858 47926978 1 1992454 2547367 20 0
1500834647.631026 47930213 0 2271395 2830733 58 82
1500834647.632857 47932097 1 1992432 2547392 -1 24
1500834647.634549 47933784 0 2271361 2830734 23 78
1500834647.637954 47937215 1 1992451 2547385 17 16
1500834647.639315 47937356 0 2271367 2830734 28 74
1500834647.641651 47940928 0 2271362 2830713 22 50
1500834647.642917 47942334 1 1992471 2547374 35 5
1500834647.645337 47944500 0 2271361 2830753 20 85
1500834647.648121 47947454 1 1992446 2547377 10 8
1500834647.649527 47948072 0 2271367 2830750 25 77
1500834647.652378 47951644 0 2271382 2830770 38 91
1500834647.653698 47952573 1 1992447 2547381 11 12
1500834647.655995 47955215 0 2271374 2830753 29 70
1500834647.658413 47957691 1 1992447 2547383 11 14
1500834647.659972 47958787 0 2271373 2830806 27 116
1500834647.663133 47962358 0 2271423 2830813 73 116
1500834647.664530 47962810 1 1992472 2547373 34 4
1500834647.666591 47965930 0 2271411 2830809 58 105
1500834647.668596 47967928 1 1992468 2547391 29 21
1500834647.670383 47969501 0 2271399 2830842 44 130
1500834647.673800 47973046 1 1992446 2547392 7 21
1500834647.675250 47973073 0 2271398 2830850 41 130
1500834647.677515 47976645 0 2271435 2830818 74 92
1500834647.678756 47978164 1 1992455 2547389 15 17
1500834647.680988 47980217 0 2271431 2830882 66 147
1500834647.683926 47983283 1 1992452 2547386 12 14
1500834647.685399 47983789 0 2271432 2830886 63 142
1500834647.688115 47987360 0 2271422 2830892 50 139
1500834647.689491 47988402 1 1992465 2547412 24 38
1500834647.691690 47990932 0 2271438 2830867 62 107
1500834647.694199 47993521 1 1992453 2547396 12 21
1500834647.695535 47994504 0 2271444 2830920 64 150
1500834647.698899 47998075 0 2271478 2830915 92 136
1500834647.700144 47998640 1 1992457 2547407 15 30
1500834647.702288 48001647 0 2271454 2830928 64 140
1500834647.704283 48003759 1 1992456 2547433 14 53
1500834647.705956 48005219 0 2271439 2830962 46 164
1500834647.709436 48008790 0 2271473 2830951 75 144
1500834647.710957 48008878 1 1992469 2547422 26 40
1500834647.713066 48012362 0 2271507 2830946 103 131
1500834647.714584 48013996 1 1992478 2547447 33 61
1500834647.716550 48015933 0 2271488 2830966 79 142
1500834647.719714 48019114 1 1992480 2547467 33 76
1500834647.721069 48019505 0 2271467 2830967 55 135
1500834647.723665 48023077 0 2271472 2830991 57 150
1500834647.725032 48024232 1 1992507 2547460 57 65
1500834647.727319 48026648 0 2271463 2830969 45 120
1500834647.729817 48029351 1 1992491 2547487 39 87
1500834647.731318 48030220 0 2271459 2830994 39 136
1500834647.734535 48033792 0 2271499 2831003 75 136
1500834647.735742 48034469 1 1992506 2547482 51 77
1500834647.737949 48037364 0 2271482 2831025 55 149
1500834647.740010 48039587 1 1992494 2547508 37 97
1500834647.741491 48040935 0 2271500 2831028 69 143
1500834647.745015 48044507 0 2271505 2831027 70 134
1500834647.746460 48044706 1 1992504 2547513 45 96
1500834647.748656 48048079 0 2271536 2831059 95 156
1500834647.750428 48049824 1 1992502 2547510 41 88
1500834647.752201 48051651 0 2271506 2831070 61 157
1500834647.755504 48054942 1 1992504 2547533 41 105
1500834647.756847 48055223 0 2271524 2831077 75 154
1500834647.759265 48058795 0 2271491 2831076 40 144
1500834647.760722 48060060 1 1992514 2547524 48 90
1500834647.762808 48062366 0 2271501 2831094 47 152
1500834647.765585 48065178 1 1992516 2547535 47 95
1500834647.767391 48065938 0 2271517 2831115 60 163
1500834647.770172 48069510 0 2271543 2831107 81 146
1500834647.771404 48070297 1 1992520 2547529 48 84
1500834647.773631 48073082 0 2271527 2831116 61 146
1500834647.775853 48075415 1 1992541 2547541 65 90
1500834647.777286 48076654 0 2271535 2831161 65 180
1500834647.780620 48080225 0 2271544 2831161 70 169
1500834647.782130 48080533 1 1992521 2547559 43 102
1500834647.784135 48083797 0 2271566 2831169 87 166
1500834647.786159 48085651 1 1992527 2547568 46 105
1500834647.787887 48087369 0 2271540 2831198 58 183
1500834647.791206 48090769 1 1992509 2547572 27 103
1500834647.792679 48090941 0 2271560 2831210 74 183
1500834647.795009 48094512 0 2271555 2831173 65 137
1500834647.796380 48095887 1 1992530 2547559 45 85
1500834647.798534 48098084 0 2271554 2831216 60 169
1500834647.805538 48101005 1 1992521 2547557 34 78
1500834647.806509 48101656 0 2271552 2831202 55 146
1500834647.807319 48105227 0 2271566 2831237 65 170
1500834647.808711 48106122 1 1992511 2547555 23 72
1500834647.809624 48108799 0 2271568 2831230 63 153
1500834647.811939 48111240 1 1992509 2547547 20 60
1500834647.813027 48112371 0 2271589 2831274 79 185
1500834647.816652 48115943 0 2271614 2831293 98 192
1500834647.817928 48116358 1 1992532 2547572 41 80
1500834647.820069 48119514 0 2271598 2831294 77 181
1500834647.821876 48121476 1 1992520 2547557 28 61
1500834647.823715 48123086 0 2271600 2831330 75 204
1500834647.826988 48126594 1 1992528 2547556 34 57
1500834647.828425 48126658 0 2271610 2831324 80 186
1500834647.831093 48130229 0 2271622 2831311 87 163
1500834647.832178 48131712 1 1992525 2547575 30 72
1500834647.834387 48133801 0 2271633 2831366 92 205
1500834647.837425 48136831 1 1992512 2547581 16 74
1500834647.838775 48137373 0 2271628 2831363 82 190
1500834647.841321 48140944 0 2271618 2831350 68 166
1500834647.842836 48141949 1 1992511 2547584 15 73
1500834647.844863 48144516 0 2271618 2831352 64 158
1500834647.847356 48147067 1 1992534 2547592 36 76
1500834647.849019 48148088 0 2271627 2831378 69 173
1500834647.852011 48151660 0 2271650 2831361 87 147
1500834647.853339 48152185 1 1992540 2547608 40 87
1500834647.855756 48155232 0 2271619 2831369 53 146
1500834647.857754 48157303 1 1992542 2547610 40 84
1500834647.859342 48158803 0 2271628 2831385 59 152
1500834647.863001 48162375 0 2271626 2831371 54 130
1500834647.864143 48162422 1 1992542 2547630 38 98
1500834647.866167 48165947 0 2271650 2831356 74 108
1500834647.868102 48167540 1 1992568 2547643 60 105
1500834647.870073 48169519 0 2271623 2831393 45 136
1500834647.873059 48172658 1 1992573 2547682 61 135
1500834647.874500 48173091 0 2271631 2831382 50 118
1500834647.877090 48176663 0 2271620 2831357 37 88
1500834647.878336 48177777 1 1992588 2547680 72 125
1500834647.880484 48180235 0 2271623 2831369 38 94
1500834647.883196 48182896 1 1992561 2547683 43 120
1500834647.884669 48183807 0 2271624 2831413 37 130
1500834647.887694 48187379 0 2271662 2831407 71 117
1500834647.888981 48188015 1 1992604 2547714 81 142
1500834647.891358 48190952 0 2271630 2831414 37 117
1500834647.893354 48193135 1 1992604 2547727 76 146
1500834647.895144 48194523 0 2271652 2831432 56 127
1500834647.898423 48198096 0 2271655 2831433 56 120
1500834647.899892 48198253 1 1992613 2547757 80 165
1500834647.901861 48201667 0 2271700 2831442 95 121
1500834647.903710 48203371 1 1992638 2547774 99 171
1500834647.905553 48205239 0 2271649 2831462 42 133
1500834647.908588 48208489 1 1992639 2547804 94 189
1500834647.910115 48208811 0 2271662 2831478 52 140
1500834647.912594 48212382 0 2271679 2831466 65 120
1500834647.914156 48213608 1 1992635 2547801 85 175
1500834647.916306 48215954 0 2271686 2831483 68 129
1500834647.918851 48218727 1 1992655 2547805 99 168
1500834647.920260 48219525 0 2271673 2831514 52 150
1500834647.923474 48223097 0 2271702 2831522 76 149
1500834647.924602 48223846 1 1992650 2547788 89 142
1500834647.926901 48226669 0 2271687 2831509 58 128
1500834647.929046 48228964 1 1992620 2547785 56 131
1500834647.930445 48230240 0 2271698 2831544 65 153
1500834647.933942 48233812 0 2271709 2831552 72 151
1500834647.935358 48234083 1 1992645 2547793 76 131
1500834647.937444 48237384 0 2271745 2831550 102 140
1500834647.939163 48239201 1 1992638 2547776 65 107
1500834647.941178 48240955 0 2271717 2831569 70 150
1500834647.944648 48244320 1 1992631 2547784 55 108
1500834647.946021 48244527 0 2271710 2831554 60 127
1500834647.948398 48248099 0 2271691 2831535 39 102
1500834647.949712 48249438 1 1992625 2547772 46 90
1500834647.951939 48251670 0 2271707 2831566 52 125
1500834647.954649 48254557 1 1992611 2547787 30 99
1500834647.956216 48255242 0 2271703 2831569 45 120
1500834647.958980 48258813 0 2271734 2831562 72 106
1500834647.960271 48259676 1 1992624 2547796 41 102
1500834647.962373 48262385 0 2271701 2831553 37 91
1500834647.964710 48264794 1 1992627 2547771 42 73
1500834647.966241 48265957 0 2271718 2831599 51 129
1500834647.969430 48269528 0 2271723 2831573 53 97
1500834647.970853 48269913 1 1992603 2547771 17 69
1500834647.973248 48273100 0 2271722 2831578 49 96
1500834647.975126 48275030 1 1992624 2547795 36 88
1500834647.976757 48276672 0 2271704 2831582 30 94
1500834647.980240 48280149 1 1992623 2547795 33 83
1500834647.981642 48280244 0 2271711 2831596 35 102
1500834647.983929 48283815 0 2271711 2831547 33 50
1500834647.985238 48285267 1 1992629 2547788 37 72
1500834647.987548 48287387 0 2271712 2831593 32 90
1500834647.990438 48290386 1 1992631 2547794 37 74
1500834647.991770 48290959 0 2271715 2831605 33 96
1500834647.994709 48294530 0 2271692 2831606 10 91
1500834647.996056 48295504 1 1992637 2547795 41 71
1500834647.998205 48298102 0 2271728 2831569 44 51
1500834648.000834 48300623 1 1992628 2547794 30 66
1500834648.002171 48301674 0 2271714 2831596 29 74
1500834648.005339 48305245 0 2271724 2831580 37 55
1500834648.006630 48305741 1 1992628 2547806 29 74
1500834648.008774 48308817 0 2271710 2831543 22 17
1500834648.010769 48310860 1 1992633 2547753 32 20
1500834648.012360 48312389 0 2271675 2831515 -12 -10
1500834648.016006 48315961 0 2271671 2831497 -15 -26
1500834648.017309 48315978 1 1992612 2547755 11 21
1500834648.019682 48319533 0 2271677 2831395 -8 -120
1500834648.020960 48321096 1 1992587 2547731 -13 -2
1500834648.023070 48323104 0 2271616 2831349 -64 -155
1500834648.026056 48326215 1 1992579 2547700 -19 -30
1500834648.027559 48326676 0 2271570 2831283 -103 -207
1500834648.030226 48330248 0 2271526 2831144 -137 -324
1500834648.031798 48331333 1 1992579 2547673 -17 -53
1500834648.033779 48333820 0 2271486 2831041 -165 -400
1500834648.036317 48336452 1 1992564 2547627 -30 -92
1500834648.037770 48337392 0 2271452 2830975 -186 -436
1500834648.040880 48340964 0 2271444 2830879 -181 -498
1500834648.042228 48341571 1 1992546 2547586 -45 -124
1500834648.044431 48344536 0 2271359 2830776 -249 -563
1500834648.046616 48346690 1 1992540 2547563 -47 -137
1500834648.048014 48348108 0 2271319 2830700 -270 -599
1500834648.051492 48351680 0 2271299 2830600 -271 -655
1500834648.052864 48351808 1 1992521 2547534 -61 -155
1500834648.055085 48355252 0 2271268 2830490 -283 -717
1500834648.056567 48356926 1 1992504 2547506 -73 -171
1500834648.058840 48358824 0 2271206 2830416 -323 -741
1500834648.061785 48362044 1 1992493 2547462 -78 -201
1500834648.063206 48362396 0 2271154 2830352 -351 -754
1500834648.065866 48365967 0 2271143 2830277 -339 -777
1500834648.067286 48367162 1 1992491 2547423 -75 -225
1500834648.069408 48369539 0 2271126 2830226 -333 -776
1500834648.072234 48372280 1 1992486 2547419 -75 -214
1500834648.073631 48373110 0 2271114 2830188 -323 -763
1500834648.076586 48376682 0 2271111 2830168 -305 -734
1500834648.077838 48377398 1 1992478 2547379 -77 -238
1500834648.080204 48380253 0 2271073 2830139 -321 -715
1500834648.082126 48382515 1 1992461 2547360 -88 -240
1500834648.083641 48383824 0 2271079 2830152 -295 -658
1500834648.087104 48387396 0 2271087 2830131 -269 -636
1500834648.088640 48387633 1 1992460 2547324 -83 -258
1500834648.090799 48390967 0 2271103 2830120 -237 -606
1500834648.092665 48392751 1 1992444 2547284 -92 -279
1500834648.094268 48394539 0 2271085 2830099 -239 -587
1500834648.097626 48397869 1 1992436 2547250 -93 -293
1500834648.099291 48398110 0 2271091 2830124 -218 -526
1500834648.101431 48401681 0 2271084 2830107 -210 -509
1500834648.103134 48402986 1 1992414 2547258 -107 -267
1500834648.104954 48405252 0 2271110 2830110 -172 -474
1500834648.108006 48408103 1 1992414 2547219 -100 -286
1500834648.109297 48408824 0 2271106 2830148 -165 -408
1500834648.112198 48412395 0 2271129 2830138 -133 -391
1500834648.113601 48413220 1 1992398 2547202 -108 -284
1500834648.115683 48415966 0 2271122 2830150 -131 -355
1500834648.117965 48418338 1 1992384 2547155 -114 -310
1500834648.119538 48419538 0 2271141 2830161 -105 -322
1500834648.122899 48423109 0 2271139 2830186 -100 -278
1500834648.124116 48423456 1 1992371 2547128 -119 -315
1500834648.126237 48426681 0 2271179 2830189 -56 -257
1500834648.128328 48428575 1 1992368 2547116 -114 -306
1500834648.130002 48430252 0 2271143 2830187 -86 -242
1500834648.133468 48433693 1 1992343 2547101 -130 -300
1500834648.134840 48433824 0 2271144 2830185 -79 -228
1500834648.137011 48437396 0 2271162 2830157 -57 -240
1500834648.138418 48438812 1 1992338 2547064 -126 -315
1500834648.140770 48440968 0 2271148 2830207 -66 -178
1500834648.143524 48443930 1 1992323 2547058 -132 -300
1500834648.144953 48444540 0 2271166 2830213 -45 -161
1500834648.147581 48448112 0 2271165 2830193 -43 -169
1500834648.149141 48449048 1 1992326 2547061 -120 -278
1500834648.151448 48451684 0 2271147 2830170 -57 -180
1500834648.153853 48454167 1 1992323 2547050 -115 -270
1500834648.155221 48455256 0 2271168 2830227 -33 -115
1500834648.158526 48458828 0 2271204 2830205 3 -128
1500834648.159929 48459285 1 1992322 2547045 -108 -257
1500834648.161865 48462400 0 2271194 2830209 -6 -116
1500834648.163830 48464404 1 1992324 2547053 -99 -233
1500834648.165351 48465972 0 2271170 2830225 -28 -93
1500834648.168945 48469523 1 1992328 2547033 -89 -237
1500834648.170373 48469544 0 2271163 2830220 -32 -91
1500834648.172485 48473116 0 2271207 2830196 12 -107
1500834648.174063 48474642 1 1992323 2547083 -88 -175
1500834648.176265 48476688 0 2271177 2830192 -16 -104
1500834648.179174 48479760 1 1992337 2547068 -69 -178
1500834648.180600 48480260 0 2271171 2830229 -20 -62
1500834648.183366 48483832 0 2271198 2830217 7 -69
1500834648.184641 48484878 1 1992327 2547086 -74 -150
1500834648.186734 48487403 0 2271195 2830208 4 -73
1500834648.189421 48489997 1 1992348 2547095 -49 -132
1500834648.190757 48490975 0 2271202 2830262 11 -17
1500834648.194077 48494547 0 2271249 2830271 55 -7
1500834648.195216 48495116 1 1992360 2547117 -34 -103
1500834648.197293 48498119 0 2271206 2830318 12 38
1500834648.199532 48500234 1 1992375 2547121 -17 -92
1500834648.201007 48501691 0 2271230 2830335 34 52
1500834648.204500 48505263 0 2271245 2830344 46 58
1500834648.205962 48505352 1 1992372 2547132 -18 -75
1500834648.208131 48508834 0 2271280 2830361 76 71
1500834648.209764 48510470 1 1992387 2547150 -2 -53
1500834648.211724 48512406 0 2271267 2830413 60 116
1500834648.214911 48515589 1 1992372 2547147 -15 -52
1500834648.216287 48515977 0 2271295 2830429 83 124
1500834648.218843 48519548 0 2271276 2830427 60 115
1500834648.220120 48520707 1 1992398 2547140 11 -55
1500834648.222543 48523120 0 2271291 2830455 71 135
1500834648.225143 48525826 1 1992397 2547137 10 -54
1500834648.226657 48526691 0 2271304 2830513 79 181
1500834648.229691 48530262 0 2271336 2830522 105 179
1500834648.230821 48530943 1 1992397 2547139 10 -48
1500834648.233022 48533833 0 2271323 2830538 87 183
1500834648.235163 48536061 1 1992386 2547134 0 -49
1500834648.236767 48537405 0 2271358 2830559 115 192
1500834648.240145 48540976 0 2271364 2830587 114 207
1500834648.241649 48541179 1 1992374 2547134 -11 -45
1500834648.243766 48544548 0 2271393 2830597 135 204
1500834648.245489 48546297 1 1992373 2547125 -11 -50
1500834648.247244 48548119 0 2271351 2830614 88 208
1500834648.250685 48551415 1 1992369 2547134 -14 -38
1500834648.252080 48551691 0 2271356 2830605 88 187
1500834648.254434 48555264 0 2271361 2830575 88 148
1500834648.255885 48556533 1 1992368 2547132 -14 -37
1500834648.258071 48558835 0 2271361 2830590 83 153
1500834648.260749 48561652 1 1992382 2547126 0 -40
1500834648.262092 48562407 0 2271355 2830610 73 163
1500834648.265110 48565980 0 2271385 2830614 97 157
1500834648.266716 48566770 1 1992370 2547154 -11 -11
1500834648.268770 48569551 0 2271346 2830603 55 137
1500834648.271159 48571887 1 1992373 2547140 -7 -23
1500834648.272743 48573123 0 2271351 2830625 57 150
1500834648.276042 48576695 0 2271367 2830602 69 120
1500834648.277459 48577005 1 1992371 2547163 -8 0
1500834648.279566 48580267 0 2271384 2830609 81 120
1500834648.281236 48582122 1 1992372 2547157 -6 -5
1500834648.283404 48583839 0 2271365 2830596 59 101
1500834648.286313 48587241 1 1992386 2547168 8 6
1500834648.287678 48587411 0 2271362 2830602 53 101
1500834648.290084 48590982 0 2271365 2830590 53 84
1500834648.291473 48592359 1 1992389 2547192 11 29
1500834648.293532 48594554 0 2271369 2830607 54 95
1500834648.296578 48597477 1 1992384 2547196 6 31
1500834648.297875 48598126 0 2271368 2830629 50 110
1500834648.300704 48601698 0 2271363 2830622 43 97
1500834648.302023 48602595 1 1992398 2547217 19 49
1500834648.304254 48605269 0 2271366 2830609 44 79
1500834648.306670 48607713 1 1992397 2547198 17 29
1500834648.308122 48608841 0 2271373 2830658 48 120
1500834648.311479 48612413 0 2271386 2830671 58 125
1500834648.312841 48612831 1 1992398 2547225 17 53
1500834648.314784 48615985 0 2271415 2830692 82 137
1500834648.316759 48617949 1 1992407 2547218 25 44
1500834648.318568 48619557 0 2271410 2830719 73 154
1500834648.321930 48623067 1 1992403 2547214 20 38
1500834648.323422 48623129 0 2271417 2830772 75 195
1500834648.325766 48626701 0 2271447 2830790 99 200
1500834648.327053 48628185 1 1992437 2547229 51 50
1500834648.329182 48630273 0 2271460 2830873 105 266
1500834648.332153 48633303 1 1992408 2547225 21 44
1500834648.333587 48633845 0 2271496 2830925 133 299
1500834648.336365 48637416 0 2271512 2830971 140 324
1500834648.337755 48638421 1 1992409 2547227 21 44
1500834648.339836 48640989 0 2271550 2830999 167 330
1500834648.342380 48643540 1 1992435 2547246 45 60
1500834648.343795 48644561 0 2271552 2831082 159 388
1500834648.347188 48648133 0 2271625 2831146 218 424
1500834648.348591 48648658 1 1992411 2547251 20 61
1500834648.350672 48651705 0 2271608 2831155 189 406
1500834648.352610 48653778 1 1992430 2547240 37 47
1500834648.354217 48655277 0 2271624 2831220 193 442
1500834648.357789 48658849 0 2271657 2831219 212 414
1500834648.358978 48658897 1 1992425 2547252 30 56
1500834648.361331 48662421 0 2271689 2831259 229 426
1500834648.362967 48664015 1 1992443 2547253 45 54
1500834648.364879 48665993 0 2271684 2831316 210 453
1500834648.367942 48669134 1 1992437 2547267 37 64
1500834648.369349 48669565 0 2271702 2831318 214 427
1500834648.371904 48673137 0 2271695 2831336 195 418
1500834648.373226 48674252 1 1992442 2547234 40 30
1500834648.375583 48676709 0 2271683 2831313 172 371
1500834648.378059 48679371 1 1992427 2547235 24 30
1500834648.379647 48680281 0 2271704 2831346 181 379
1500834648.382769 48683853 0 2271742 2831317 206 329
1500834648.384083 48684489 1 1992429 2547234 25 28
1500834648.386256 48687425 0 2271669 2831317 125 309
1500834648.388335 48689608 1 1992414 2547229 10 22
1500834648.389934 48690997 0 2271665 2831300 114 274
1500834648.393364 48694569 0 2271675 2831283 117 241
1500834648.394788 48694726 1 1992413 2547223 9 15
1500834648.396932 48698141 0 2271703 2831243 136 189
1500834648.398535 48699846 1 1992416 2547227 12 18
1500834648.400525 48701714 0 2271639 2831241 68 176
1500834648.403680 48704965 1 1992401 2547210 -2 1
1500834648.405115 48705286 0 2271637 2831220 62 146
1500834648.407589 48708858 0 2271622 2831186 45 105
1500834648.408922 48710083 1 1992391 2547235 -11 25
1500834648.411034 48712430 0 2271635 2831167 55 81
1500834648.413867 48715201 1 1992396 2547219 -5 9
1500834648.415084 48716002 0 2271604 2831163 23 73
1500834648.418232 48719574 0 2271635 2831159 51 65
1500834648.419663 48720319 1 1992408 2547243 7 31
1500834648.421872 48723146 0 2271580 2831149 -3 52
1500834648.424225 48725438 1 1992399 2547239 -1 26
1500834648.425541 48726718 0 2271607 2831163 23 62
1500834648.428978 48730291 0 2271605 2831173 20 68
1500834648.432213 48730556 1 1992407 2547282 7 65
1500834648.433595 48733863 0 2271646 2831178 58 69
1500834648.434758 48735674 1 1992420 2547288 19 67
1500834648.436324 48737435 0 2271626 2831197 36 83
1500834648.439509 48740793 1 1992429 2547301 27 75
1500834648.440974 48741007 0 2271630 2831232 38 111
1500834648.443502 48744580 0 2271638 2831217 44 90
1500834648.444880 48745911 1 1992447 2547336 43 104
1500834648.446715 48748152 0 2271643 2831287 46 150
1500834648.449494 48751029 1 1992456 2547360 49 120
1500834648.451095 48751724 0 2271662 2831284 61 138
1500834648.453971 48755296 0 2271666 2831330 61 173
1500834648.455247 48756148 1 1992489 2547385 77 136
1500834648.457521 48758869 0 2271686 2831339 76 171
1500834648.460171 48761267 1 1992487 2547425 71 165
1500834648.461382 48762441 0 2271694 2831391 79 210
1500834648.464771 48766014 0 2271723 2831389 102 195
1500834648.466094 48766385 1 1992513 2547447 91 176
1500834648.468379 48769586 0 2271740 2831419 112 211
1500834648.470082 48771504 1 1992516 2547467 89 184
1500834648.471817 48773158 0 2271727 2831461 93 238
1500834648.475123 48776622 1 1992526 2547462 93 168
1500834648.476582 48776730 0 2271742 2831458 102 221
1500834648.478953 48780302 0 2271732 2831450 87 200
1500834648.480199 48781741 1 1992549 2547486 109 180
1500834648.482378 48783874 0 2271743 2831512 92 246
1500834648.485374 48786860 1 1992529 2547494 84 177
1500834648.486734 48787446 0 2271739 2831505 83 225
1500834648.489780 48791018 0 2271745 2831500 84 207
1500834648.490985 48791979 1 1992534 2547500 84 172
1500834648.493134 48794591 0 2271745 2831486 79 181
1500834648.495423 48797098 1 1992537 2547503 82 165
1500834648.496868 48798163 0 2271742 2831494 72 178
1500834648.500366 48801735 0 2271772 2831520 96 192
1500834648.501595 48802217 1 1992544 2547516 84 167
1500834648.503632 48805307 0 2271753 2831493 73 155
1500834648.505637 48807336 1 1992536 2547524 72 165
1500834648.507264 48808880 0 2271744 2831486 60 139
1500834648.510772 48812452 0 2271746 2831471 59 117
1500834648.512229 48812455 1 1992540 2547518 72 150
1500834648.514377 48816024 0 2271761 2831420 70 62
1500834648.515865 48817575 1 1992549 2547524 76 147
1500834648.517893 48819597 0 2271724 2831471 31 106
1500834648.520911 48822694 1 1992550 2547539 73 152
1500834648.522610 48823169 0 2271732 2831494 37 121
1500834648.525056 48826741 0 2271722 2831475 26 96
1500834648.526523 48827813 1 1992575 2547563 92 165
1500834648.528702 48830314 0 2271745 2831489 46 104
1500834648.531214 48832932 1 1992558 2547574 71 165
1500834648.532635 48833886 0 2271769 2831542 66 148
1500834648.535853 48837458 0 2271810 2831566 101 162
1500834648.537308 48838051 1 1992570 2547549 78 132
1500834648.539358 48841029 0 2271771 2831607 59 191
1500834648.541507 48843170 1 1992569 2547574 73 148
1500834648.543004 48844601 0 2271793 2831623 76 195
1500834648.546443 48848173 0 2271822 2831672 99 229
1500834648.547719 48848288 1 1992568 2547591 68 155
1500834648.550258 48851745 0 2271865 2831688 134 230
1500834648.551585 48853406 1 1992582 2547593 77 148
1500834648.553470 48855317 0 2271844 2831736 106 261
1500834648.556812 48858524 1 1992583 2547613 74 158
1500834648.558181 48858888 0 2271852 2831750 107 258
1500834648.560796 48862460 0 2271845 2831763 94 255
1500834648.561976 48863642 1 1992602 2547624 88 159
1500834648.564245 48866032 0 2271877 2831774 119 250
1500834648.566909 48868761 1 1992577 2547644 60 168
1500834648.568366 48869603 0 2271894 2831841 128 298
1500834648.571499 48873175 0 2271935 2831872 159 309
1500834648.572748 48873879 1 1992617 2547648 94 162
1500834648.574888 48876747 0 2271906 2831899 122 315
1500834648.577166 48878998 1 1992603 2547653 75 157
1500834648.578563 48880319 0 2271942 2831924 149 319
1500834648.582136 48883891 0 2271946 2831965 144 338
1500834648.583444 48884117 1 1992604 2547654 72 149
1500834648.585582 48887463 0 2272002 2831968 188 320
1500834648.587279 48889236 1 1992619 2547678 82 163
1500834648.589117 48891035 0 2271981 2831984 157 315
1500834648.592396 48894354 1 1992640 2547697 97 171
1500834648.593873 48894607 0 2271972 2832017 139 327
1500834648.596200 48898179 0 2271977 2831987 135 279
1500834648.597699 48899472 1 1992630 2547693 82 157
1500834648.599806 48901750 0 2271991 2832023 140 296
1500834648.602591 48904590 1 1992612 2547711 60 165
1500834648.604004 48905322 0 2271973 2832024 115 279
1500834648.606951 48908894 0 2271990 2832005 124 244
1500834648.608245 48909708 1 1992628 2547727 72 170
1500834648.610521 48912465 0 2271963 2831962 91 189
1500834648.612734 48914826 1 1992616 2547715 57 149
1500834648.614251 48916037 0 2271961 2832000 84 213
1500834648.617613 48919608 0 2271964 2831952 82 155
1500834648.619057 48919944 1 1992621 2547711 59 136
1500834648.621169 48923180 0 2271965 2831971 78 164
1500834648.622995 48925062 1 1992626 2547719 60 135
1500834648.624779 48926752 0 2271934 2831946 45 131
1500834648.628868 48930180 1 1992616 2547718 47 126
1500834648.629824 48930324 0 2271943 2831948 51 125
1500834648.632157 48933895 0 2271936 2831915 42 87
1500834648.633421 48935298 1 1992641 2547749 68 148
1500834648.635537 48937467 0 2271964 2831967 66 131
1500834648.638320 48940417 1 1992616 2547745 41 135
1500834648.639800 48941038 0 2271946 2831987 45 142
1500834648.642620 48944610 0 2271954 2831988 50 135
1500834648.643919 48945535 1 1992632 2547759 54 140
1500834648.646260 48948182 0 2271981 2831985 73 124
1500834648.648612 48950654 1 1992654 2547796 72 166
1500834648.649819 48951754 0 2271986 2832055 74 182
1500834648.653282 48955325 0 2272016 2832084 98 198
1500834648.654621 48955772 1 1992675 2547830 88 188
1500834648.656859 48958897 0 2272032 2832144 107 242
1500834648.658777 48960890 1 1992702 2547840 108 186
1500834648.660356 48962469 0 2272054 2832208 121 287
1500834648.663994 48966008 1 1992696 2547892 96 224
1500834648.665453 48966041 0 2272075 2832256 134 315
1500834648.667631 48969612 0 2272112 2832318 161 354
1500834648.668914 48971126 1 1992704 2547894 98 212
1500834648.671281 48973185 0 2272114 2832380 153 390
1500834648.673932 48976245 1 1992727 2547904 114 209
1500834648.675511 48976757 0 2272151 2832442 179 424
1500834648.678079 48980329 0 2272161 2832491 178 444
1500834648.679691 48981363 1 1992725 2547936 105 226
1500834648.681915 48983901 0 2272189 2832535 194 458
1500834648.684296 48986482 1 1992721 2547936 95 212
1500834648.685688 48987472 0 2272216 2832590 208 481
1500834648.688914 48991044 0 2272275 2832652 251 510
1500834648.690506 48991600 1 1992732 2547953 100 215
1500834648.692356 48994616 0 2272242 2832687 205 511
1500834648.694447 48996718 1 1992735 2547961 97 210
1500834648.696119 48998188 0 2272275 2832716 224 507
1500834648.699721 49001760 0 2272285 2832734 220 493
1500834648.701007 49001837 1 1992728 2547947 85 184
1500834648.703196 49005332 0 2272314 2832730 234 459
1500834648.704648 49006955 1 1992731 2547952 83 178
1500834648.706688 49008904 0 2272278 2832754 186 453
1500834648.709804 49012073 1 1992712 2547958 60 173
1500834648.711216 49012476 0 2272286 2832767 182 437
1500834648.713945 49016048 0 2272277 2832722 163 368
1500834648.715503 49017191 1 1992714 2547954 59 159
1500834648.717350 49019619 0 2272269 2832700 146 325
1500834648.719890 49022309 1 1992730 2547929 71 126
1500834648.721505 49023191 0 2272272 2832709 140 314
1500834648.724622 49026763 0 2272290 2832676 149 264
1500834648.725882 49027426 1 1992722 2547942 60 131
1500834648.728049 49030334 0 2272230 2832653 84 226
1500834648.730305 49032544 1 1992711 2547950 46 131
1500834648.731816 49033906 0 2272212 2832629 62 190
1500834648.735477 49037478 0 2272196 2832583 44 135
1500834648.736720 49037661 1 1992705 2547935 38 109
1500834648.738843 49041049 0 2272211 2832552 56 98
1500834648.740363 49042779 1 1992713 2547935 44 103
1500834648.742423 49044621 0 2272190 2832514 33 57
1500834648.745460 49047897 1 1992702 2547917 31 80
1500834648.746937 49048193 0 2272144 2832452 -12 -4
1500834648.749631 49051764 0 2272135 2832388 -19 -63
1500834648.750976 49053015 1 1992705 2547915 32 74
1500834648.753010 49055336 0 2272119 2832353 -32 -91
1500834648.755840 49058133 1 1992663 2547901 -9 57
1500834648.757410 49058908 0 2272096 2832302 -51 -133
1500834648.760137 49062479 0 2272084 2832235 -59 -187
1500834648.761463 49063251 1 1992681 2547878 9 32
1500834648.763659 49066051 0 2272033 2832179 -103 -227
1500834648.765923 49068369 1 1992657 2547838 -14 -7
1500834648.767544 49069622 0 2272017 2832126 -111 -262
1500834648.771020 49073194 0 2272018 2832062 -103 -305
1500834648.772165 49073488 1 1992645 2547831 -24 -13
1500834648.774513 49076766 0 2272019 2832009 -95 -335
1500834648.776125 49078606 1 1992653 2547808 -15 -33
1500834648.777998 49080338 0 2271959 2831938 -145 -380
1500834648.781368 49083724 1 1992628 2547745 -37 -90
1500834648.782795 49083910 0 2271946 2831861 -148 -428
1500834648.785152 49087482 0 2271910 2831753 -172 -502
1500834648.786466 49088842 1 1992625 2547710 -37 -117
1500834648.788718 49091054 0 2271869 2831710 -199 -510
1500834648.791383 49093960 1 1992606 2547694 -52 -124
1500834648.792887 49094626 0 2271835 2831606 -218 -575
1500834648.795987 49098199 0 2271779 2831508 -256 -630
1500834648.797218 49099078 1 1992584 2547636 -69 -170
1500834648.800926 49101771 0 2271734 2831383 -282 -707
1500834648.803318 49104196 1 1992575 2547601 -73 -192
1500834648.804409 49105342 0 2271694 2831332 -301 -710
1500834648.806573 49108915 0 2271687 2831257 -288 -735
1500834648.807865 49109314 1 1992565 2547572 -77 -207
1500834648.809934 49112486 0 2271644 2831152 -310 -787
1500834648.811808 49114431 1 1992550 2547516 -86 -246
1500834648.814121 49116058 0 2271569 2831091 -360 -795
1500834648.816939 49119549 1 1992534 2547478 -95 -266
1500834648.818404 49119630 0 2271565 2831029 -341 -803
1500834648.820668 49123202 0 2271528 2830923 -354 -852
1500834648.822062 49124667 1 1992523 2547429 -99 -295
1500834648.824175 49126773 0 2271510 2830920 -348 -801
1500834648.827159 49129785 1 1992491 2547411 -122 -293
1500834648.828645 49130345 0 2271501 2830868 -334 -799
1500834648.831350 49133917 0 2271458 2830788 -353 -824
1500834648.832758 49134902 1 1992492 2547375 -113 -308
1500834648.834948 49137489 0 2271457 2830715 -331 -840
1500834648.837562 49140020 1 1992467 2547357 -129 -305
1500834648.838973 49141061 0 2271444 2830726 -322 -777
1500834648.842128 49144633 0 2271479 2830708 -269 -745
1500834648.843625 49145138 1 1992471 2547335 -117 -306
1500834648.845590 49148204 0 2271434 2830672 -294 -732
1500834648.847590 49150255 1 1992459 2547315 -120 -305
1500834648.849192 49151776 0 2271427 2830680 -282 -678
1500834648.852683 49155348 0 2271447 2830665 -245 -649
1500834648.854103 49155373 1 1992454 2547303 -117 -297
1500834648.856246 49158920 0 2271467 2830655 -210 -617
1500834648.857734 49160491 1 1992462 2547287 -102 -293
1500834648.859724 49162492 0 2271452 2830672 -210 -562
1500834648.863032 49165609 1 1992453 2547273 -104 -287
1500834648.864439 49166065 0 2271461 2830687 -188 -512
1500834648.866894 49169636 0 2271451 2830670 -185 -495
1500834648.868418 49170727 1 1992454 2547266 -96 -275
1500834648.870546 49173208 0 2271446 2830667 -178 -466
1500834648.873011 49175845 1 1992447 2547269 -96 -255
1500834648.874496 49176780 0 2271461 2830687 -152 -418
1500834648.877797 49180352 0 2271512 2830717 -94 -363
1500834648.879214 49180963 1 1992454 2547238 -83 -268
1500834648.881095 49183923 0 2271487 2830740 -111 -318
1500834648.883284 49186080 1 1992445 2547242 -86 -247
1500834648.884808 49187495 0 2271510 2830792 -82 -249
1500834648.888383 49191067 0 2271523 2830833 -64 -195
1500834648.889663 49191199 1 1992440 2547232 -85 -240
1500834648.892049 49194639 0 2271568 2830829 -17 -186
1500834648.893459 49196316 1 1992446 2547227 -74 -229
1500834648.895421 49198211 0 2271559 2830886 -24 -120
1500834648.898558 49201435 1 1992445 2547197 -70 -242
1500834648.900020 49201783 0 2271579 2830935 -3 -66
1500834648.902841 49205355 0 2271621 2830982 37 -17
1500834648.903971 49206553 1 1992450 2547205 -60 -219
1500834648.906149 49208927 0 2271617 2831024 31 24
1500834648.909001 49211672 1 1992443 2547190 -62 -219
1500834648.910245 49212499 0 2271664 2831084 74 79
1500834648.913370 49216070 0 2271718 2831140 120 127
1500834648.914729 49216790 1 1992441 2547184 -60 -210
1500834648.916746 49219642 0 2271700 2831184 96 161
1500834648.918959 49221908 1 1992441 2547165 -56 -214
1500834648.920522 49223214 0 2271741 2831231 129 195
1500834648.924127 49226786 0 2271743 2831273 123 223
1500834648.925387 49227026 1 1992427 2547156 -65 -209
1500834648.927528 49230357 0 2271776 2831310 147 244
1500834648.929262 49232144 1 1992418 2547136 -69 -214
1500834648.931116 49233929 0 2271775 2831325 137 243
1500834648.934509 49237262 1 1992414 2547116 -68 -219
1500834648.935907 49237501 0 2271781 2831364 135 265
1500834648.938318 49241072 0 2271795 2831310 140 198
1500834648.939535 49242379 1 1992425 2547109 -53 -211
1500834648.941738 49244644 0 2271808 2831363 144 236
1500834648.944669 49247496 1 1992407 2547112 -66 -195
1500834648.946052 49248215 0 2271784 2831376 113 234
1500834648.949002 49251786 0 2271798 2831376 120 220
1500834648.950304 49252614 1 1992414 2547094 -55 -199
1500834648.952642 49255358 0 2271788 2831341 104 174
1500834648.954832 49257731 1 1992405 2547072 -60 -207
1500834648.956384 49258930 0 2271799 2831362 108 183
1500834648.959700 49262501 0 2271815 2831352 117 163
1500834648.961017 49262849 1 1992388 2547077 -72 -189
1500834648.963200 49266073 0 2271831 2831340 125 142
1500834648.964930 49267966 1 1992386 2547050 -69 -202
1500834648.966774 49269645 0 2271776 2831351 66 144
1500834648.970290 49273084 1 1992369 2547064 -80 -176
1500834648.971649 49273216 0 2271790 2831338 75 123
1500834648.973954 49276788 0 2271764 2831329 46 107
1500834648.975362 49278202 1 1992376 2547076 -68 -153
1500834648.977391 49280359 0 2271766 2831346 45 117
1500834648.980395 49283319 1 1992386 2547089 -54 -131
1500834648.981867 49283930 0 2271774 2831372 50 135
1500834648.984375 49287502 0 2271793 2831378 65 133
1500834648.985846 49288436 1 1992396 2547091 -41 -120
1500834648.988128 49291074 0 2271772 2831377 42 124
1500834648.990470 49293554 1 1992408 2547100 -27 -104
1500834648.991891 49294645 0 2271800 2831418 66 155
1500834648.995228 49298217 0 2271840 2831453 100 179
1500834648.996580 49298672 1 1992410 2547132 -23 -67
1500834648.998745 49301788 0 2271836 2831486 90 199
1500834649.000604 49303790 1 1992421 2547157 -11 -39
1500834649.002225 49305360 0 2271846 2831520 94 219
1500834649.005847 49308908 1 1992444 2547173 12 -21
1500834649.007312 49308932 0 2271854 2831549 96 233
1500834649.009495 49312504 0 2271905 2831576 138 244
1500834649.010794 49314026 1 1992470 2547195 36 1
1500834649.013111 49316075 0 2271884 2831649 110 298
1500834649.015919 49319144 1 1992452 2547205 17 11
1500834649.017441 49319647 0 2271912 2831684 130 313
1500834649.020212 49323219 0 2271930 2831685 139 295
1500834649.021571 49324261 1 1992453 2547220 17 25
1500834649.023595 49326791 0 2271925 2831700 126 291
1500834649.026243 49329380 1 1992478 2547223 40 27
1500834649.027608 49330362 0 2271954 2831763 146 332
1500834649.030879 49333934 0 2271980 2831760 162 309
1500834649.032074 49334498 1 1992488 2547244 47 45
1500834649.034376 49337506 0 2271965 2831787 138 315
1500834649.036348 49339616 1 1992489 2547256 45 54
1500834649.037820 49341078 0 2271973 2831810 137 317
1500834649.041455 49344651 0 2271968 2831809 124 297
1500834649.043573 49344735 1 1992478 2547260 32 55
1500834649.044868 49348223 0 2271993 2831790 140 261
1500834649.046362 49349853 1 1992494 2547250 45 43
1500834649.048555 49351794 0 2271968 2831814 108 268
1500834649.051562 49354971 1 1992486 2547246 35 37
1500834649.053155 49355366 0 2271959 2831785 93 225
1500834649.055533 49358938 0 2271939 2831743 69 172
1500834649.056952 49360090 1 1992484 2547246 31 35
1500834649.059169 49362510 0 2271943 2831730 69 150
1500834649.061824 49365207 1 1992469 2547220 15 9
1500834649.063123 49366081 0 2271939 2831734 61 145
1500834649.066298 49369653 0 2271957 2831702 75 106
1500834649.067679 49370325 1 1992480 2547199 25 -11
1500834649.069789 49373224 0 2271917 2831687 33 86
1500834649.071896 49375443 1 1992458 2547193 3 -15
1500834649.073381 49376795 0 2271924 2831692 38 86
1500834649.077101 49380367 0 2271922 2831665 34 56
1500834649.078336 49380561 1 1992450 2547195 -4 -12
1500834649.080533 49383939 0 2271954 2831664 62 52
1500834649.082118 49385679 1 1992453 2547189 0 -16
1500834649.083996 49387511 0 2271898 2831658 6 44
1500834649.087310 49390797 1 1992444 2547195 -8 -9
1500834649.088605 49391083 0 2271894 2831648 2 32
1500834649.091159 49394654 0 2271906 2831647 14 30
1500834649.092522 49395914 1 1992460 2547180 8 -22
1500834649.094661 49398226 0 2271891 2831659 0 40
1500834649.097569 49401033 1 1992457 2547185 5 -15
1500834649.098986 49401798 0 2271919 2831663 27 42
1500834649.101940 49405370 0 2271939 2831647 45 25
1500834649.103184 49406150 1 1992446 2547194 -5 -5
1500834649.105410 49408941 0 2271897 2831648 3 25
1500834649.108012 49411269 1 1992448 2547216 -2 16
1500834649.109118 49412513 0 2271903 2831704 9 76
1500834649.112478 49416085 0 2271930 2831678 34 47
1500834649.113891 49416387 1 1992463 2547195 13 -4
1500834649.116171 49419656 0 2271953 2831685 54 51
1500834649.117906 49421505 1 1992474 2547205 23 6
1500834649.119700 49423228 0 2271918 2831701 18 63
1500834649.123057 49426623 1 1992461 2547188 10 -10
1500834649.124449 49426800 0 2271924 2831714 23 72
1500834649.127043 49430372 0 2271918 2831674 16 30
1500834649.128341 49431740 1 1992482 2547203 30 5
1500834649.130708 49433943 0 2271908 2831686 6 40
1500834649.133440 49436858 1 1992464 2547215 12 16
1500834649.134724 49437515 0 2271904 2831718 2 68
1500834649.137733 49441087 0 2271918 2831693 15 41
1500834649.139006 49441977 1 1992465 2547217 13 17
1500834649.141076 49444659 0 2271913 2831671 10 18
1500834649.143477 49447095 1 1992471 2547223 18 22
1500834649.145016 49448231 0 2271909 2831694 6 39
1500834649.148324 49451803 0 2271926 2831683 22 27
1500834649.149698 49452213 1 1992466 2547228 13 26
1500834649.151765 49455375 0 2271925 2831679 20 22
1500834649.153638 49457331 1 1992459 2547239 6 35
1500834649.155469 49458947 0 2271907 2831669 2 12
1500834649.158797 49462450 1 1992462 2547251 9 45
1500834649.160048 49462519 0 2271910 2831672 5 15
1500834649.162393 49466091 0 2271907 2831645 2 -11
1500834649.163720 49467568 1 1992463 2547235 10 28
1500834649.166133 49469664 0 2271880 2831667 -23 11
1500834649.168881 49472686 1 1992491 2547262 36 52
1500834649.170265 49473236 0 2271883 2831664 -18 8
1500834649.173034 49476808 0 2271871 2831662 -28 6
1500834649.174441 49477804 1 1992485 2547272 29 59
1500834649.176738 49480380 0 2271880 2831633 -17 -21
1500834649.179178 49482923 1 1992495 2547307 37 89
1500834649.180698 49483952 0 2271918 2831688 20 32
1500834649.183852 49487523 0 2271938 2831713 38 54
1500834649.185337 49488041 1 1992530 2547324 68 100
1500834649.187244 49491096 0 2271925 2831743 24 79
1500834649.189244 49493159 1 1992526 2547338 60 107
1500834649.190935 49494667 0 2271930 2831748 28 79
1500834649.194495 49498240 0 2271955 2831796 50 120
1500834649.195769 49498277 1 1992546 2547364 75 125
1500834649.198070 49501812 0 2271967 2831798 59 115
1500834649.199680 49503395 1 1992550 2547357 75 111
1500834649.201572 49505383 0 2271951 2831838 41 146
1500834649.204774 49508513 1 1992556 2547388 76 134
1500834649.206168 49508955 0 2271974 2831879 60 176
1500834649.208733 49512526 0 2271983 2831894 65 180
1500834649.210259 49513631 1 1992555 2547391 71 129
1500834649.212449 49516098 0 2272004 2831913 81 187
1500834649.215032 49518749 1 1992554 2547414 66 143
1500834649.216547 49519670 0 2272022 2831961 93 221
1500834649.219657 49523242 0 2272056 2831970 120 216
1500834649.220954 49523867 1 1992568 2547415 75 135
1500834649.223087 49526814 0 2272036 2832006 94 237
1500834649.225156 49528985 1 1992568 2547426 71 137
1500834649.226726 49530385 0 2272046 2832059 98 272
1500834649.230288 49533957 0 2272060 2832042 105 240
1500834649.231533 49534104 1 1992576 2547440 75 142
1500834649.233662 49537529 0 2272105 2832045 141 228
1500834649.235402 49539223 1 1992594 2547452 88 145
1500834649.237261 49541100 0 2272070 2832101 100 267
1500834649.240518 49544341 1 1992588 2547457 77 141
1500834649.241867 49544672 0 2272077 2832088 101 239
1500834649.244613 49548244 0 2272069 2832077 88 214
1500834649.245758 49549460 1 1992584 2547453 69 129
1500834649.248077 49551816 0 2272065 2832084 79 208
1500834649.250671 49554579 1 1992579 2547466 60 134
1500834649.252157 49555388 0 2272075 2832099 84 210
1500834649.255302 49558961 0 2272088 2832090 91 189
1500834649.256557 49559697 1 1992589 2547475 66 135
1500834649.258763 49562533 0 2272067 2832115 66 201
1500834649.261020 49564815 1 1992564 2547474 39 126
1500834649.262360 49566104 0 2272075 2832133 70 206
1500834649.265929 49569677 0 2272082 2832115 73 177
1500834649.267196 49569934 1 1992575 2547474 47 119
1500834649.269442 49573249 0 2272115 2832123 100 174
1500834649.270987 49575052 1 1992584 2547476 53 114
1500834649.272853 49576821 0 2272070 2832094 52 136
1500834649.276240 49580170 1 1992579 2547492 45 122
1500834649.277628 49580393 0 2272064 2832109 44 142
1500834649.279967 49583965 0 2272080 2832096 57 121
1500834649.281322 49585287 1 1992590 2547506 53 128
1500834649.283420 49587537 0 2272089 2832114 62 131
1500834649.286583 49590405 1 1992586 2547525 46 138
1500834649.287784 49591109 0 2272066 2832115 37 124
1500834649.290780 49594680 0 2272083 2832095 51 98
1500834649.292021 49595523 1 1992612 2547543 68 147
1500834649.294346 49598252 0 2272064 2832094 30 91
1500834649.296675 49600642 1 1992620 2547556 72 150
1500834649.297956 49601823 0 2272067 2832123 31 113
1500834649.301473 49605395 0 2272086 2832135 47 118
1500834649.302837 49605760 1 1992617 2547597 65 180
1500834649.304920 49608968 0 2272104 2832157 61 132
1500834649.306751 49610879 1 1992633 2547604 76 176
1500834649.308497 49612539 0 2272081 2832185 36 150
1500834649.311872 49615997 1 1992630 2547637 69 196
1500834649.313359 49616112 0 2272101 2832200 53 155
1500834649.315767 49619684 0 2272120 2832210 68 155
1500834649.316968 49621115 1 1992674 2547657 106 203
1500834649.319179 49623255 0 2272135 2832256 78 189
1500834649.322119 49626233 1 1992658 2547695 85 226
1500834649.323458 49626827 0 2272153 2832300 90 219
1500834649.326318 49630399 0 2272153 2832325 85 229
1500834649.327723 49631352 1 1992679 2547698 100 215
1500834649.329858 49633971 0 2272149 2832320 76 210
1500834649.332196 49636470 1 1992673 2547716 89 219
1500834649.333748 49637543 0 2272172 2832379 93 253
1500834649.337195 49641115 0 2272215 2832421 128 277
1500834649.338481 49641587 1 1992688 2547734 98 223
1500834649.340432 49644687 0 2272200 2832392 106 233
1500834649.342518 49646706 1 1992694 2547760 98 234
1500834649.344048 49648259 0 2272185 2832455 86 278
1500834649.347660 49651824 1 1992701 2547767 99 226
1500834649.349030 49651831 0 2272194 2832445 90 252
1500834649.351210 49655403 0 2272230 2832417 119 210
1500834649.352790 49656942 1 1992719 2547790 110 234
1500834649.354761 49658974 0 2272202 2832464 86 241
1500834649.357855 49662060 1 1992719 2547805 104 234
1500834649.359192 49662546 0 2272188 2832444 68 208
1500834649.361865 49666118 0 2272196 2832446 72 197
1500834649.363243 49667178 1 1992700 2547817 80 231
1500834649.365451 49669690 0 2272166 2832389 40 132
1500834649.368001 49672295 1 1992719 2547825 93 225
1500834649.369522 49673261 0 2272174 2832411 45 145
1500834649.372654 49676833 0 2272206 2832396 73 122
1500834649.373900 49677413 1 1992739 2547823 106 210
1500834649.376057 49680405 0 2272153 2832398 19 117
1500834649.378195 49682531 1 1992739 2547845 100 218
1500834649.379527 49683977 0 2272157 2832380 22 93
1500834649.383141 49687549 0 2272167 2832374 30 82
1500834649.384535 49687650 1 1992728 2547843 84 203
1500834649.386813 49691121 0 2272179 2832349 40 54
1500834649.388274 49692769 1 1992736 2547847 87 195
1500834649.390369 49694693 0 2272133 2832360 -5 61
1500834649.393558 49697887 1 1992743 2547855 89 191
1500834649.394929 49698265 0 2272146 2832350 8 48
1500834649.397553 49701837 0 2272134 2832322 -3 19
1500834649.398982 49703006 1 1992743 2547860 84 184
1500834649.401224 49705409 0 2272125 2832290 -11 -12
1500834649.403782 49708125 1 1992748 2547859 84 172
1500834649.404994 49708980 0 2272120 2832335 -15 31
1500834649.408242 49712552 0 2272155 2832321 19 16
1500834649.409739 49713243 1 1992774 2547868 104 170
1500834649.411735 49716124 0 2272113 2832305 -21 0
1500834649.413963 49718362 1 1992752 2547890 77 180
1500834649.415296 49719696 0 2272144 2832309 10 4
1500834649.418929 49723267 0 2272129 2832334 -4 28
1500834649.420287 49723480 1 1992744 2547891 65 170
1500834649.422299 49726839 0 2272185 2832326 49 19
1500834649.423994 49728598 1 1992763 2547903 79 171
1500834649.426138 49730411 0 2272133 2832351 -2 42
1500834649.429139 49733717 1 1992770 2547917 81 174
1500834649.430467 49733983 0 2272132 2832341 -2 30
1500834649.432980 49737554 0 2272137 2832317 3 6
1500834649.434431 49738835 1 1992772 2547906 78 153
1500834649.436763 49741126 0 2272146 2832352 12 39
1500834649.439494 49743953 1 1992764 2547927 66 164
1500834649.440830 49744697 0 2272140 2832361 6 45
1500834649.443885 49748269 0 2272184 2832377 47 58
1500834649.445179 49749071 1 1992779 2547927 76 154
1500834649.447406 49751841 0 2272131 2832368 -5 46
1500834649.449566 49754190 1 1992782 2547928 75 146
1500834649.451098 49755413 0 2272149 2832402 13 75
1500834649.454652 49758985 0 2272162 2832388 25 58
1500834649.455878 49759308 1 1992781 2547922 70 132
1500834649.457994 49762556 0 2272183 2832384 44 51
1500834649.459862 49764426 1 1992764 2547941 50 142
1500834649.461636 49766128 0 2272135 2832387 -3 51
1500834649.465222 49769545 1 1992761 2547910 45 105
1500834649.466478 49769700 0 2272138 2832400 0 60
1500834649.468742 49773272 0 2272154 2832350 15 10
1500834649.470108 49774663 1 1992767 2547924 48 112
1500834649.472223 49776844 0 2272146 2832369 7 28
1500834649.475463 49779782 1 1992766 2547936 45 117
1500834649.476503 49780416 0 2272140 2832367 1 25
1500834649.479327 49783988 0 2272126 2832364 -12 21
1500834649.480650 49784900 1 1992759 2547935 36 109
1500834649.482992 49787560 0 2272119 2832321 -17 -20
1500834649.485343 49790020 1 1992773 2547952 47 119
1500834649.486798 49791132 0 2272120 2832350 -15 9
1500834649.490032 49794704 0 2272157 2832343 21 2
1500834649.491392 49795139 1 1992780 2547963 51 122
1500834649.493614 49798276 0 2272141 2832358 5 16
1500834649.495506 49800257 1 1992788 2547983 56 134
1500834649.497066 49801848 0 2272132 2832348 -3 6
1500834649.500561 49805376 1 1992791 2547992 56 135
1500834649.501967 49805419 0 2272127 2832354 -7 12
1500834649.504149 49808991 0 2272169 2832338 33 -3
1500834649.505873 49810494 1 1992804 2548012 65 146
1500834649.508027 49812563 0 2272125 2832363 -10 21
1500834649.510977 49815613 1 1992807 2548030 64 154
1500834649.512285 49816135 0 2272114 2832368 -19 25
1500834649.515087 49819707 0 2272127 2832345 -5 2
1500834649.516318 49820731 1 1992792 2548038 46 152
1500834649.518671 49823279 0 2272119 2832334 -12 -8
1500834649.521155 49825849 1 1992803 2548031 54 136
1500834649.522572 49826850 0 2272123 2832367 -7 24
1500834649.525599 49830422 0 2272152 2832333 21 -9
1500834649.527069 49830968 1 1992830 2548047 76 143
1500834649.529203 49833994 0 2272099 2832335 -30 -6
1500834649.531822 49836086 1 1992813 2548049 56 136
1500834649.532867 49837566 0 2272094 2832326 -32 -14
1500834649.536358 49841138 0 2272109 2832322 -15 -16
1500834649.537752 49841205 1 1992805 2548068 45 146
1500834649.539894 49844710 0 2272127 2832254 3 -78
1500834649.541426 49846323 1 1992798 2548059 36 129
1500834649.543458 49848281 0 2272095 2832291 -27 -38
1500834649.546675 49851442 1 1992803 2548061 39 123
1500834649.548079 49851854 0 2272077 2832279 -42 -46
1500834649.550677 49855426 0 2272070 2832246 -45 -74
1500834649.552021 49856562 1 1992803 2548072 37 126
1500834649.554423 49858997 0 2272086 2832241 -27 -74
1500834649.556855 49861680 1 1992801 2548050 33 98
1500834649.558413 49862569 0 2272091 2832256 -20 -55
1500834649.561480 49866141 0 2272099 2832258 -11 -49
1500834649.562620 49866798 1 1992797 2548024 28 68
1500834649.564936 49869712 0 2272054 2832257 -52 -46
1500834649.567036 49871917 1 1992803 2548037 32 76
1500834649.568408 49873284 0 2272073 2832246 -30 -53
1500834649.571998 49876856 0 2272063 2832209 -37 -84
1500834649.573477 49877035 1 1992795 2548022 23 58
1500834649.575521 49880428 0 2272105 2832188 5 -98
1500834649.577134 49882153 1 1992778 2547992 6 27
1500834649.579270 49883999 0 2272059 2832172 -38 -106
1500834649.582267 49887272 1 1992778 2547981 6 15
1500834649.583662 49887571 0 2272038 2832127 -55 -141
1500834649.586413 49891143 0 2272034 2832059 -55 -195
1500834649.587651 49892391 1 1992779 2547958 7 -7
1500834649.589864 49894715 0 2271994 2832007 -89 -231
1500834649.592554 49897509 1 1992763 2547929 -8 -33
1500834649.593988 49898286 0 2271999 2831965 -78 -255
1500834649.597057 49901858 0 2271996 2831886 -75 -313
1500834649.598499 49902627 1 1992747 2547894 -22 -63
1500834649.600400 49905430 0 2271927 2831799 -135 -375
1500834649.602923 49907746 1 1992734 2547861 -32 -90
1500834649.604229 49909002 0 2271904 2831734 -148 -412
1500834649.607767 49912573 0 2271894 2831650 -148 -465
1500834649.609187 49912864 1 1992698 2547797 -63 -144
1500834649.611223 49916145 0 2271865 2831542 -165 -537
1500834649.613039 49917983 1 1992709 2547755 -48 -174
1500834649.614719 49919717 0 2271798 2831454 -217 -585
1500834649.618216 49923102 1 1992677 2547728 -75 -188
1500834649.619653 49923289 0 2271753 2831349 -245 -646
1500834649.622029 49926860 0 2271719 2831193 -261 -751
1500834649.623303 49928220 1 1992671 2547656 -75 -243
1500834649.625413 49930432 0 2271646 2831154 -313 -740
1500834649.628167 49933338 1 1992635 2547615 -104 -266
1500834649.629808 49934004 0 2271618 2831092 -319 -751
1500834649.632586 49937575 0 2271599 2830987 -316 -802
1500834649.634134 49938457 1 1992626 2547539 -105 -320
1500834649.636199 49941147 0 2271543 2830885 -348 -847
1500834649.638737 49943575 1 1992588 2547507 -134 -330
1500834649.639911 49944718 0 2271512 2830855 -355 -822
1500834649.643337 49948290 0 2271523 2830777 -322 -843
1500834649.644736 49948694 1 1992595 2547456 -119 -357
1500834649.647146 49951862 0 2271481 2830725 -341 -839
1500834649.648807 49953813 1 1992570 2547418 -135 -370
1500834649.650451 49955434 0 2271432 2830658 -365 -849
1500834649.653726 49958932 1 1992552 2547400 -143 -363
1500834649.655329 49959006 0 2271407 2830605 -365 -845
1500834649.657618 49962578 0 2271392 2830529 -356 -863
1500834649.658997 49964051 1 1992554 2547375 -132 -363
1500834649.660896 49966150 0 2271387 2830517 -338 -820
1500834649.663969 49969170 1 1992531 2547331 -145 -381
1500834649.665502 49969723 0 2271371 2830486 -331 -797
1500834649.668052 49973295 0 2271356 2830476 -324 -756
1500834649.669621 49974288 1 1992512 2547310 -153 -376
1500834649.671626 49976867 0 2271362 2830440 -298 -742
1500834649.674252 49979407 1 1992514 2547309 -141 -353
1500834649.675729 49980439 0 2271373 2830477 -269 -660
1500834649.678918 49984011 0 2271418 2830483 -210 -613
1500834649.680308 49984525 1 1992513 2547304 -133 -335
1500834649.682318 49987583 0 2271372 2830511 -240 -548
1500834649.684249 49989644 1 1992524 2547265 -114 -350
1500834649.685916 49991155 0 2271379 2830513 -218 -511
1500834649.689434 49994727 0 2271424 2830524 -162 -468
1500834649.690952 49994762 1 1992503 2547284 -126 -310
1500834649.693036 49998299 0 2271455 2830532 -122 -431
1500834649.694665 49999881 1 1992514 2547277 -107 -297
1500834649.696580 50001871 0 2271438 2830601 -130 -339
1500834649.699817 50004999 1 1992500 2547263 -113 -291
1500834649.701288 50005443 0 2271455 2830616 -105 -303
1500834649.703697 50009015 0 2271463 2830664 -90 -239
1500834649.705219 50010118 1 1992501 2547229 -105 -304
1500834649.707297 50012587 0 2271494 2830664 -55 -224
1500834649.709760 50015237 1 1992499 2547212 -100 -300
1500834649.711322 50016159 0 2271509 2830707 -37 -169
1500834649.714422 50019731 0 2271547 2830727 1 -139
1500834649.715816 50020355 1 1992502 2547212 -90 -281
1500834649.718025 50023303 0 2271531 2830743 -14 -115
1500834649.720024 50025475 1 1992474 2547194 -110 -280
1500834649.721589 50026875 0 2271515 2830791 -28 -62
1500834649.725041 50030447 0 2271535 2830782 -7 -66
1500834649.726534 50030594 1 1992476 2547186 -101 -270
1500834649.728522 50034020 0 2271580 2830789 36 -55
1500834649.730268 50035712 1 1992484 2547174 -87 -264
1500834649.732180 50037592 0 2271538 2830814 -5 -28
1500834649.735329 50040831 1 1992467 2547152 -97 -268
1500834649.736787 50041164 0 2271546 2830818 3 -22
1500834649.739258 50044736 0 2271536 2830781 -6 -55
1500834649.740791 50045950 1 1992464 2547162 -93 -241
1500834649.742823 50048308 0 2271544 2830763 2 -68
1500834649.745632 50051069 1 1992470 2547160 -81 -227
1500834649.747130 50051880 0 2271535 2830801 -6 -28
1500834649.749986 50055452 0 2271564 2830785 22 -41
1500834649.751401 50056188 1 1992461 2547159 -84 -213
1500834649.753431 50059024 0 2271544 2830787 2 -36
1500834649.755845 50061307 1 1992476 2547162 -64 -196
1500834649.757167 50062596 0 2271541 2830789 0 -31
1500834649.760728 50066168 0 2271559 2830786 17 -31
1500834649.762020 50066426 1 1992480 2547171 -56 -175
1500834649.764243 50069740 0 2271581 2830815 37 -1
1500834649.765983 50071544 1 1992466 2547180 -65 -155
1500834649.767679 50073312 0 2271560 2830845 15 28
1500834649.771176 50076663 1 1992495 2547195 -33 -131
1500834649.772654 50076884 0 2271593 2830857 45 38
1500834649.774944 50080456 0 2271574 2830864 25 43
1500834649.776327 50081782 1 1992496 2547194 -30 -123
1500834649.778534 50084027 0 2271594 2830897 43 72
1500834649.781313 50086900 1 1992515 2547226 -10 -85
1500834649.782751 50087599 0 2271594 2830973 41 139
1500834649.785600 50091171 0 2271625 2830980 68 137
1500834649.786938 50092018 1 1992514 2547252 -10 -55
1500834649.789028 50094743 0 2271643 2830997 81 145
1500834649.791568 50097137 1 1992535 2547257 11 -46
1500834649.792994 50098315 0 2271642 2831065 75 200
1500834649.796323 50101887 0 2271677 2831095 104 216
1500834649.797555 50102255 1 1992547 2547297 22 -5
1500834649.804664 50105458 0 2271703 2831169 122 272
1500834649.805956 50107373 1 1992571 2547311 44 9
1500834649.806975 50109030 0 2271713 2831201 124 285
1500834649.807997 50112492 1 1992565 2547314 36 12
1500834649.808919 50112601 0 2271734 2831238 136 302
1500834649.810456 50116173 0 2271745 2831226 138 272
1500834649.811798 50117610 1 1992551 2547330 21 27
1500834649.814085 50119744 0 2271760 2831299 144 324
1500834649.816924 50122728 1 1992542 2547314 12 11
1500834649.818383 50123316 0 2271769 2831338 144 341
1500834649.821133 50126887 0 2271784 2831333 150 315
1500834649.822495 50127846 1 1992552 2547285 21 -16
1500834649.824846 50130459 0 2271766 2831349 124 311
1500834649.827100 50132964 1 1992549 2547278 17 -21
1500834649.828596 50134030 0 2271784 2831378 134 319
1500834649.831927 50137602 0 2271811 2831380 151 301
1500834649.833117 50138082 1 1992537 2547288 5 -10
1500834649.835405 50141173 0 2271796 2831409 128 310
1500834649.837444 50143200 1 1992548 2547271 15 -25
1500834649.839000 50144744 0 2271801 2831411 125 293
1500834649.842668 50148315 0 2271798 2831389 115 255
1500834649.844079 50148319 1 1992527 2547268 -5 -26
1500834649.846182 50151887 0 2271814 2831348 123 201
1500834649.847570 50153438 1 1992517 2547275 -14 -17
1500834649.849679 50155458 0 2271781 2831374 85 213
1500834649.852725 50158557 1 1992538 2547254 7 -35
1500834649.854061 50159029 0 2271777 2831359 76 186
1500834649.856837 50162600 0 2271767 2831327 62 145
1500834649.858219 50163675 1 1992530 2547255 0 -31
1500834649.860393 50166171 0 2271753 2831280 45 92
1500834649.862963 50168794 1 1992522 2547272 -7 -13
1500834649.864346 50169743 0 2271749 2831293 39 99
1500834649.867523 50173315 0 2271791 2831265 76 67
1500834649.868973 50173912 1 1992530 2547285 1 0
1500834649.870939 50176887 0 2271735 2831266 19 64
1500834649.873038 50179031 1 1992535 2547289 6 4
1500834649.874650 50180458 0 2271751 2831285 33 78
1500834649.878078 50184030 0 2271761 2831282 41 71
1500834649.879427 50184149 1 1992545 2547303 15 17
1500834649.881670 50187602 0 2271778 2831252 55 39
1500834649.883279 50189267 1 1992543 2547309 13 22
1500834649.885336 50191174 0 2271749 2831308 25 90
1500834649.888420 50194386 1 1992539 2547314 9 26
1500834649.889862 50194746 0 2271744 2831325 19 101
1500834649.892325 50198318 0 2271758 2831313 31 84
1500834649.893800 50199504 1 1992560 2547333 29 43
1500834649.895972 50201889 0 2271765 2831316 36 82
1500834649.898530 50204623 1 1992556 2547326 24 34
1500834649.900041 50205461 0 2271772 2831367 41 125
1500834649.903184 50209033 0 2271815 2831393 79 142
1500834649.904467 50209741 1 1992580 2547358 45 62
1500834649.906842 50212604 0 2271795 2831403 56 143
1500834649.909025 50214859 1 1992588 2547373 50 73
1500834649.910269 50216176 0 2271806 2831431 63 161
1500834649.913658 50219748 0 2271826 2831445 78 165
1500834649.915025 50219978 1 1992583 2547380 43 75
1500834649.917387 50223320 0 2271860 2831462 105 171
1500834649.918987 50225096 1 1992589 2547388 46 78
1500834649.920891 50226891 0 2271842 2831480 82 178
1500834649.924079 50230214 1 1992592 2547374 46 60
1500834649.925572 50230463 0 2271842 2831522 77 207
1500834649.928162 50234035 0 2271846 2831499 76 173
1500834649.929376 50235333 1 1992595 2547368 46 51
1500834649.931556 50237606 0 2271858 2831507 83 170
1500834649.934484 50240452 1 1992568 2547357 18 38
1500834649.935693 50241178 0 2271868 2831532 88 183
1500834649.938709 50244749 0 2271862 2831532 77 172
1500834649.940036 50245570 1 1992588 2547363 36 42
1500834649.942173 50248321 0 2271861 2831516 72 147
1500834649.944727 50250687 1 1992570 2547343 17 21
1500834649.946033 50251892 0 2271851 2831560 59 180
1500834649.949297 50255464 0 2271866 2831533 70 144
1500834649.950693 50255805 1 1992572 2547344 18 21
1500834649.953066 50259035 0 2271888 2831511 87 115
1500834649.954691 50260923 1 1992568 2547345 14 21
1500834649.956516 50262607 0 2271855 2831517 51 114
1500834649.959747 50266041 1 1992556 2547335 2 11
1500834649.961250 50266178 0 2271843 2831486 37 78
1500834649.963831 50269750 0 2271843 2831460 35 49
1500834649.964934 50271159 1 1992584 2547343 29 18
1500834649.967320 50273322 0 2271829 2831491 20 75
1500834649.970106 50276276 1 1992560 2547326 5 1
1500834649.971304 50276893 0 2271816 2831471 7 52
1500834649.974512 50280465 0 2271819 2831465 10 44
1500834649.975524 50281394 1 1992577 2547353 21 27
1500834649.977964 50284036 0 2271825 2831438 15 16
1500834649.980162 50286512 1 1992587 2547352 30 25
1500834649.981851 50287607 0 2271806 2831495 -3 69
1500834649.985031 50291178 0 2271853 2831501 42 71
1500834649.986377 50291630 1 1992569 2547362 12 33
1500834649.988482 50294750 0 2271823 2831507 12 73
1500834649.990570 50296747 1 1992576 2547363 18 32
1500834649.992141 50298321 0 2271831 2831509 19 71
1500834649.995665 50301865 1 1992604 2547360 44 28
1500834649.997031 50301892 0 2271859 2831520 45 77
1500834649.999271 50305464 0 2271870 2831539 53 90
1500834650.000703 50306983 1 1992605 2547372 43 38
1500834650.002877 50309035 0 2271856 2831576 37 120
1500834650.005746 50312100 1 1992591 2547391 28 54
1500834650.007175 50312606 0 2271859 2831612 38 147
1500834650.010085 50316178 0 2271862 2831629 39 154
1500834650.011323 50317218 1 1992605 2547394 40 54
1500834650.013550 50319749 0 2271901 2831639 74 154
1500834650.016056 50322336 1 1992616 2547393 48 50
1500834650.017311 50323320 0 2271887 2831680 57 183
1500834650.020664 50326891 0 2271943 2831698 106 189
1500834650.021954 50327454 1 1992600 2547417 30 70
1500834650.024038 50330462 0 2271899 2831725 59 203
1500834650.026301 50332573 1 1992591 2547415 20 64
1500834650.027715 50334033 0 2271932 2831752 87 216
1500834650.031416 50337604 0 2271940 2831746 90 197
1500834650.032705 50337691 1 1992600 2547435 28 79
1500834650.034867 50341175 0 2271964 2831755 107 194
1500834650.036286 50342809 1 1992613 2547434 39 74
1500834650.038285 50344746 0 2271953 2831774 90 200
1500834650.041394 50347927 1 1992609 2547440 33 75
1500834650.042926 50348318 0 2271943 2831766 75 180
1500834650.045371 50351889 0 2271945 2831790 73 192
1500834650.046703 50353045 1 1992614 2547455 36 85
1500834650.049009 50355460 0 2271922 2831770 47 162
1500834650.051674 50358164 1 1992625 2547469 45 93
1500834650.053094 50359031 0 2271965 2831798 85 179
1500834650.056382 50362602 0 2271976 2831789 90 160
1500834650.057459 50363281 1 1992620 2547463 38 82
1500834650.059720 50366174 0 2271937 2831781 48 143
1500834650.061861 50368399 1 1992628 2547449 44 64
1500834650.063364 50369745 0 2271926 2831781 35 135
1500834650.066817 50373316 0 2271953 2831767 59 114
1500834650.068226 50373517 1 1992623 2547481 37 90
1500834650.070426 50376887 0 2271967 2831774 69 114
1500834650.072086 50378635 1 1992619 2547492 31 95
1500834650.073967 50380458 0 2271943 2831778 43 111
1500834650.077202 50383753 1 1992637 2547494 46 91
1500834650.078678 50384029 0 2271929 2831768 28 95
1500834650.081251 50387601 0 2271918 2831765 16 87
1500834650.082558 50388872 1 1992633 2547518 40 108
1500834650.084843 50391172 0 2271916 2831786 14 102
1500834650.087304 50393991 1 1992640 2547504 45 89
1500834650.088833 50394744 0 2271930 2831793 27 103
1500834650.091933 50398315 0 2271958 2831792 52 96
1500834650.093044 50399109 1 1992651 2547546 53 123
1500834650.095419 50401887 0 2271941 2831783 33 82
1500834650.097650 50404228 1 1992663 2547557 61 126
1500834650.099188 50405458 0 2271945 2831807 35 100
1500834650.102496 50409030 0 2271972 2831828 59 114
1500834650.103722 50409346 1 1992646 2547552 42 114
1500834650.106047 50412601 0 2271983 2831861 66 138
1500834650.108051 50414465 1 1992656 2547564 49 119
1500834650.109691 50416172 0 2271954 2831871 35 139
1500834650.113065 50419582 1 1992670 2547570 60 118
1500834650.114318 50419744 0 2271963 2831895 42 153
1500834650.116733 50423316 0 2271983 2831871 59 121
1500834650.118015 50424700 1 1992672 2547569 59 110
1500834650.120287 50426887 0 2271988 2831930 60 169
1500834650.123103 50429819 1 1992681 2547580 64 114
1500834650.124569 50430459 0 2271995 2831957 63 184
1500834650.127284 50434031 0 2272014 2831971 77 186
1500834650.128844 50434937 1 1992651 2547585 32 112
1500834650.131255 50437602 0 2272001 2831941 60 147
1500834650.133435 50440056 1 1992667 2547585 45 105
1500834650.134868 50441174 0 2272017 2831972 72 167
1500834650.138269 50444745 0 2272038 2831997 88 180
1500834650.139530 50445174 1 1992678 2547572 53 87
1500834650.141673 50448317 0 2272021 2832014 67 185
1500834650.143531 50450293 1 1992679 2547590 51 99
1500834650.145122 50451888 0 2272008 2832025 51 184
1500834650.148614 50455412 1 1992664 2547594 34 97
1500834650.150158 50455460 0 2272016 2832005 56 154
1500834650.152331 50459032 0 2272033 2831965 69 107
1500834650.153697 50460530 1 1992690 2547618 57 114
1500834650.155831 50462604 0 2272008 2831988 42 122
1500834650.158872 50465649 1 1992676 2547620 41 109
1500834650.160277 50466175 0 2272012 2831998 44 124
1500834650.162994 50469747 0 2272011 2831985 41 105
1500834650.164271 50470768 1 1992666 2547625 30 107
1500834650.166619 50473319 0 2272014 2831947 42 63
1500834650.169071 50475887 1 1992675 2547621 37 97
1500834650.170498 50476891 0 2272005 2831962 31 74
1500834650.173676 50480463 0 2272030 2831939 53 48
1500834650.175060 50481007 1 1992706 2547637 64 106
1500834650.177166 50484035 0 2271983 2831935 6 42
1500834650.179197 50486125 1 1992692 2547670 47 131
1500834650.180778 50487606 0 2271994 2831937 16 42
1500834650.184353 50491178 0 2271997 2831943 18 45
1500834650.185629 50491243 1 1992685 2547683 38 135
1500834650.187747 50494750 0 2272012 2831903 31 5
1500834650.189359 50496361 1 1992702 2547690 52 134
1500834650.191543 50498321 0 2271989 2831942 8 42
1500834650.194575 50501480 1 1992716 2547718 62 152
1500834650.195829 50501894 0 2271988 2831937 7 35
1500834650.198678 50505466 0 2272002 2831932 20 29
1500834650.200065 50506598 1 1992725 2547716 67 141
1500834650.202229 50509038 0 2271985 2831958 3 52
1500834650.204909 50511717 1 1992749 2547724 86 140
1500834650.206346 50512609 0 2272013 2831990 30 79
1500834650.209441 50516181 0 2272030 2832012 45 95
1500834650.210857 50516834 1 1992746 2547758 78 164
1500834650.212738 50519753 0 2272010 2832011 24 89
1500834650.215125 50521952 1 1992744 2547756 72 152
1500834650.216385 50523324 0 2272015 2832041 28 112
1500834650.219961 50526896 0 2272046 2832054 56 118
1500834650.221279 50527070 1 1992765 2547758 88 145
1500834650.223548 50530467 0 2272074 2832072 79 128
1500834650.225154 50532188 1 1992747 2547761 66 139
1500834650.227039 50534039 0 2272053 2832092 55 139
1500834650.230290 50537307 1 1992737 2547755 53 125
1500834650.231636 50537610 0 2272031 2832114 31 151
1500834650.234189 50541182 0 2272057 2832093 54 122
1500834650.235742 50542425 1 1992746 2547763 59 125
1500834650.237842 50544753 0 2272065 2832107 59 128
1500834650.240602 50547542 1 1992746 2547747 56 103
1500834650.242492 50548324 0 2272047 2832131 39 143
1500834650.244880 50551896 0 2272074 2832125 62 129
1500834650.246384 50552660 1 1992747 2547748 54 98
1500834650.248506 50555468 0 2272063 2832104 48 102
1500834650.251045 50557777 1 1992716 2547740 22 85
1500834650.252195 50559039 0 2272048 2832091 31 84
1500834650.255657 50562611 0 2272075 2832091 55 79
1500834650.257134 50562895 1 1992727 2547719 31 60
1500834650.259250 50566182 0 2272074 2832083 51 67
1500834650.261087 50568013 1 1992720 2547724 23 61
1500834650.262721 50569754 0 2272034 2832076 11 57
1500834650.266242 50573131 1 1992715 2547702 17 37
1500834650.267404 50573326 0 2272011 2832020 -11 1
1500834650.269949 50576898 0 2272012 2831965 -9 -50
1500834650.271364 50578249 1 1992704 2547685 6 19
1500834650.273339 50580469 0 2272002 2831952 -17 -59
1500834650.276094 50583367 1 1992711 2547666 13 0
1500834650.277522 50584041 0 2271966 2831913 -49 -91
1500834650.280670 50587612 0 2271981 2831854 -31 -140
1500834650.281796 50588485 1 1992706 2547663 8 -2
1500834650.284036 50591184 0 2271938 2831785 -69 -195
1500834650.286473 50593603 1 1992686 2547626 -11 -36
1500834650.287817 50594756 0 2271916 2831747 -85 -218
1500834650.291334 50598327 0 2271923 2831677 -73 -270
1500834650.292660 50598722 1 1992677 2547598 -18 -60
1500834650.294850 50601899 0 2271857 2831599 -130 -326
1500834650.296609 50603840 1 1992680 2547594 -14 -60
1500834650.298399 50605471 0 2271828 2831540 -149 -360
1500834650.301734 50608958 1 1992675 2547555 -17 -92
1500834650.303168 50609043 0 2271797 2831436 -168 -435
1500834650.305523 50612614 0 2271767 2831313 -185 -523
1500834650.306893 50614077 1 1992639 2547511 -49 -127
1500834650.309345 50616186 0 2271709 2831272 -227 -528
1500834650.311951 50619195 1 1992640 2547478 -45 -150
1500834650.313510 50619757 0 2271665 2831164 -254 -596
1500834650.316170 50623329 0 2271648 2831108 -254 -611
1500834650.317495 50624314 1 1992611 2547424 -69 -191
1500834650.319686 50626901 0 2271620 2831010 -264 -664
1500834650.322224 50629432 1 1992612 2547386 -63 -214
1500834650.323662 50630473 0 2271603 2831002 -263 -630
1500834650.326892 50634045 0 2271601 2830943 -248 -645
1500834650.329205 50634551 1 1992603 2547366 -67 -219
1500834650.330437 50637617 0 2271562 2830926 -269 -620
1500834650.332308 50639670 1 1992593 2547332 -72 -237
1500834650.333919 50641189 0 2271552 2830863 -261 -640
1500834650.337585 50644760 0 2271538 2830807 -257 -652
1500834650.338885 50644788 1 1992564 2547278 -94 -272
1500834650.341000 50648332 0 2271539 2830771 -240 -645
1500834650.342505 50649905 1 1992575 2547237 -77 -293
1500834650.344566 50651904 0 2271498 2830767 -263 -608
1500834650.347729 50655023 1 1992543 2547213 -102 -297
1500834650.349131 50655475 0 2271504 2830739 -240 -596
1500834650.351762 50659047 0 2271485 2830685 -242 -609
1500834650.353123 50660141 1 1992530 2547154 -107 -333
1500834650.355245 50662619 0 2271494 2830632 -218 -620
1500834650.357854 50665259 1 1992524 2547131 -105 -333
1500834650.359413 50666191 0 2271489 2830650 -209 -564
1500834650.362666 50669763 0 2271505 2830649 -180 -529
1500834650.364005 50670377 1 1992499 2547091 -121 -349
1500834650.366124 50673335 0 2271457 2830602 -213 -540
1500834650.368009 50675495 1 1992475 2547043 -135 -372
1500834650.369569 50676906 0 2271455 2830601 -201 -507
1500834650.373067 50680478 0 2271454 2830579 -189 -495
1500834650.374655 50680613 1 1992457 2547031 -143 -360
1500834650.376662 50684050 0 2271462 2830538 -169 -502
1500834650.378499 50685731 1 1992451 2547006 -139 -360
1500834650.380299 50687622 0 2271431 2830530 -187 -478
1500834650.383648 50690849 1 1992443 2546993 -137 -349
1500834650.385153 50691193 0 2271423 2830542 -182 -436
1500834650.387616 50694765 0 2271415 2830490 -178 -457
1500834650.388943 50695967 1 1992436 2546985 -135 -334
1500834650.391020 50698336 0 2271415 2830477 -166 -440
1500834650.393658 50701084 1 1992439 2546966 -123 -330
1500834650.395065 50701907 0 2271402 2830472 -167 -417
1500834650.398151 50705479 0 2271452 2830498 -109 -366
1500834650.399696 50706202 1 1992431 2546927 -122 -345
1500834650.401706 50709051 0 2271415 2830500 -136 -341
1500834650.403999 50711320 1 1992418 2546927 -126 -323
1500834650.405482 50712622 0 2271415 2830539 -127 -283
1500834650.408942 50716194 0 2271449 2830540 -87 -264
1500834650.410380 50716438 1 1992431 2546931 -105 -299
1500834650.412495 50719765 0 2271471 2830534 -60 -253
1500834650.413992 50721556 1 1992421 2546914 -107 -296
1500834650.415883 50723336 0 2271443 2830567 -82 -206
1500834650.419258 50726674 1 1992413 2546912 -107 -279
1500834650.420672 50726908 0 2271471 2830585 -50 -176
1500834650.423309 50730480 0 2271471 2830579 -46 -170
1500834650.424460 50731792 1 1992434 2546924 -80 -250
1500834650.426613 50734051 0 2271463 2830631 -50 -110
1500834650.429445 50736910 1 1992420 2546910 -88 -247
1500834650.433272 50737623 0 2271479 2830657 -31 -78
1500834650.434327 50741194 0 2271516 2830668 6 -62
1500834650.435317 50742027 1 1992421 2546920 -81 -222
1500834650.437283 50744765 0 2271508 2830683 -1 -44
1500834650.439825 50747145 1 1992426 2546925 -71 -203
1500834650.440942 50748336 0 2271525 2830730 15 3
1500834650.444207 50751907 0 2271545 2830747 33 19
1500834650.445657 50752262 1 1992405 2546908 -86 -206
1500834650.447770 50755478 0 2271563 2830780 48 49
1500834650.449713 50757380 1 1992427 2546894 -60 -206
1500834650.451284 50759050 0 2271538 2830798 22 63
1500834650.454796 50762498 1 1992409 2546912 -73 -176
1500834650.456157 50762621 0 2271552 2830805 34 66
1500834650.458503 50766192 0 2271576 2830796 55 54
1500834650.460105 50767616 1 1992415 2546887 -62 -188
1500834650.462178 50769764 0 2271563 2830850 40 102
1500834650.465104 50772733 1 1992414 2546896 -59 -167
1500834650.466492 50773335 0 2271563 2830860 38 105
1500834650.469378 50776907 0 2271567 2830843 40 83
1500834650.470614 50777851 1 1992438 2546885 -32 -166
1500834650.472720 50780478 0 2271569 2830840 40 75
1500834650.475198 50782969 1 1992426 2546904 -41 -137
1500834650.476627 50784050 0 2271574 2830865 43 94
1500834650.479806 50787622 0 2271615 2830862 79 86
1500834650.481309 50788086 1 1992422 2546894 -42 -137
1500834650.483485 50791193 0 2271586 2830874 47 92
1500834650.485797 50793204 1 1992429 2546916 -32 -107
1500834650.487063 50794765 0 2271566 2830866 26 79
1500834650.490855 50798322 1 1992427 2546913 -31 -103
1500834650.492169 50798337 0 2271580 2830882 38 90
