# {"dataType":"PPG",
# "sensor":"MAX30102",
# "hardware":"LPC824_MAX30102",
# "firmware":"0.1",
# "sampling_rate":100,
# "subject":"JD",
# "timestamp":"2017-07-23T22:50",
# "sensorLocations":["left hand thumb","right foot toe 5"] }
1500850213.711450 29514335 0 2529343 2819639 8 96
1500850213.717551 29520431 1 2275693 3103421 -15 24
1500850213.718759 29521468 0 2529371 2819635 34 87
1500850213.725483 29528602 0 2529332 2819643 -4 90
1500850213.727611 29530770 1 2275732 3103441 23 42
1500850213.732589 29535735 0 2529329 2819670 -6 110
1500850213.737677 29540999 1 2275701 3103434 -7 33
1500850213.739646 29542868 0 2529345 2819660 10 94
1500850213.746825 29550002 0 2529351 2819660 15 89
1500850213.748011 29551539 1 2275709 3103448 1 45
1500850213.753807 29557135 0 2529352 2819695 15 117
1500850213.757938 29561461 1 2275718 3103444 10 39
1500850213.760924 29564269 0 2529338 2819721 1 135
1500850213.768069 29571402 0 2529380 2819715 41 121
1500850213.769390 29572961 1 2275711 3103415 3 10
1500850213.775155 29578536 0 2529338 2819714 0 113
1500850213.778427 29581922 1 2275713 3103441 5 34
1500850213.782367 29585670 0 2529349 2819737 11 128
1500850213.788778 29592043 1 2275718 3103445 10 36
1500850213.790217 29592804 0 2529376 2819741 36 124
1500850213.796537 29599937 0 2529343 2819758 3 133
1500850213.798803 29602382 1 2275711 3103454 3 43
1500850213.803922 29607071 0 2529341 2819768 1 135
1500850213.808908 29612612 1 2275722 3103454 14 41
1500850213.810551 29614204 0 2529366 2819785 25 143
1500850213.817907 29621338 0 2529358 2819806 16 154
1500850213.819150 29622894 1 2275726 3103470 17 54
1500850213.824915 29628471 0 2529380 2819824 36 162
1500850213.829347 29632962 1 2275716 3103445 7 28
1500850213.832146 29635604 0 2529365 2819862 20 188
1500850213.839247 29642737 0 2529387 2819885 40 198
1500850213.840543 29644297 1 2275722 3103463 13 44
1500850213.846340 29649870 0 2529383 2819887 34 188
1500850213.849594 29653530 1 2275715 3103459 6 38
1500850213.853532 29657003 0 2529389 2819931 38 218
1500850213.859969 29663760 1 2275703 3103449 -5 27
1500850213.861414 29664136 0 2529393 2819917 40 192
1500850213.867534 29671269 0 2529419 2819988 62 247
1500850213.870076 29673990 1 2275708 3103466 0 42
1500850213.874690 29678403 0 2529415 2819995 55 239
1500850213.880227 29684220 1 2275710 3103475 2 48
1500850213.881948 29685536 0 2529443 2820000 78 229
1500850213.888878 29692669 0 2529451 2820051 81 263
1500850213.890530 29694451 1 2275723 3103475 15 45
1500850213.896013 29699802 0 2529432 2820050 59 246
1500850213.900724 29704571 1 2275718 3103451 10 20
1500850213.903174 29706935 0 2529449 2820069 72 249
1500850213.910193 29714068 0 2529431 2820057 51 223
1500850213.911511 29715625 1 2275728 3103481 19 47
1500850213.917338 29721202 0 2529426 2820098 44 248
1500850213.920994 29725029 1 2275722 3103476 13 40
1500850213.924318 29728335 0 2529437 2820100 52 235
1500850213.931441 29735368 1 2275711 3103467 2 30
1500850213.932617 29735468 0 2529448 2820083 60 205
1500850213.938945 29742602 0 2529434 2820098 44 207
1500850213.941588 29745597 1 2275703 3103484 -5 45
1500850213.945767 29749735 0 2529444 2820135 51 229
1500850213.951608 29755827 1 2275704 3103501 -3 59
1500850213.953349 29756868 0 2529461 2820126 64 207
1500850213.960099 29764001 0 2529444 2820133 45 201
1500850213.961831 29766055 1 2275732 3103492 24 47
1500850213.966939 29771134 0 2529450 2820142 48 197
1500850213.972011 29776175 1 2275709 3103491 1 44
1500850213.974307 29778267 0 2529455 2820139 50 182
1500850213.981331 29785400 0 2529432 2820118 26 151
1500850213.982658 29786404 1 2275730 3103537 21 85
1500850213.988304 29792533 0 2529439 2820141 31 164
1500850213.992497 29796743 1 2275728 3103531 18 75
1500850213.995439 29799667 0 2529440 2820173 30 184
1500850214.002776 29806800 0 2529488 2820184 74 183
1500850214.004020 29808357 1 2275735 3103574 24 111
1500850214.009715 29813934 0 2529454 2820227 38 212
1500850214.012908 29817203 1 2275736 3103585 24 115
1500850214.017055 29821067 0 2529472 2820255 53 225
1500850214.023211 29827433 1 2275753 3103582 39 105
1500850214.024559 29828201 0 2529517 2820263 92 219
1500850214.030936 29835334 0 2529477 2820296 49 237
1500850214.033198 29837663 1 2275756 3103586 40 103
1500850214.038128 29842467 0 2529479 2820303 48 229
1500850214.043400 29847785 1 2275753 3103578 35 90
1500850214.045340 29849600 0 2529506 2820328 71 239
1500850214.052449 29856734 0 2529488 2820338 50 234
1500850214.053705 29858291 1 2275755 3103603 35 108
1500850214.059638 29863867 0 2529502 2820353 60 234
1500850214.063991 29868354 1 2275761 3103606 39 105
1500850214.066750 29871000 0 2529501 2820391 56 255
1500850214.073832 29878134 0 2529541 2820393 90 241
1500850214.075199 29879690 1 2275744 3103619 21 111
1500850214.080912 29885268 0 2529515 2820420 60 252
1500850214.084212 29888705 1 2275764 3103609 39 95
1500850214.087888 29892401 0 2529532 2820438 73 254
1500850214.094443 29899046 1 2275768 3103627 41 106
1500850214.095925 29899535 0 2529533 2820435 70 236
1500850214.102261 29906669 0 2529516 2820444 50 230
1500850214.104651 29909277 1 2275770 3103643 41 115
1500850214.109298 29913803 0 2529514 2820481 45 251
1500850214.114777 29919506 1 2275761 3103657 30 121
1500850214.116567 29920937 0 2529528 2820488 56 242
1500850214.123551 29928071 0 2529547 2820488 71 227
1500850214.125031 29929625 1 2275781 3103651 47 108
1500850214.130608 29935205 0 2529530 2820516 51 240
1500850214.135321 29939965 1 2275792 3103664 55 114
1500850214.137653 29942339 0 2529544 2820536 61 244
1500850214.144692 29949473 0 2529531 2820534 45 227
1500850214.146191 29950085 1 2275810 3103704 69 145
1500850214.151816 29956606 0 2529550 2820573 60 250
1500850214.155557 29960315 1 2275801 3103728 57 159
1500850214.159088 29963740 0 2529570 2820597 75 257
1500850214.165821 29970655 1 2275802 3103726 55 148
1500850214.167192 29970874 0 2529575 2820589 75 234
1500850214.173293 29978007 0 2529553 2820629 50 257
1500850214.175939 29980885 1 2275825 3103764 74 175
1500850214.180452 29985141 0 2529589 2820649 81 260
1500850214.186050 29991115 1 2275835 3103804 79 202
1500850214.187539 29992274 0 2529590 2820652 77 247
1500850214.194483 29999407 0 2529587 2820687 70 265
1500850214.196396 30001235 1 2275854 3103844 92 227
1500850214.201520 30006541 0 2529574 2820668 54 231
1500850214.206670 30011575 1 2275866 3103851 98 220
1500850214.208869 30013674 0 2529564 2820644 42 195
1500850214.216236 30020809 0 2529545 2820579 22 122
1500850214.217436 30022369 1 2275886 3103870 111 225
1500850214.223081 30027943 0 2529529 2820514 6 54
1500850214.227196 30032035 1 2275894 3103906 112 245
1500850214.230357 30035077 0 2529496 2820432 -25 -26
1500850214.237235 30042264 1 2275899 3103910 110 234
1500850214.238764 30042211 0 2529453 2820306 -63 -142
1500850214.244459 30049345 0 2529414 2820241 -95 -194
1500850214.247434 30052494 1 2275896 3103903 101 213
1500850214.251583 30056478 0 2529372 2820136 -128 -280
1500850214.257539 30062724 1 2275911 3103946 109 240
1500850214.258955 30063612 0 2529377 2820061 -115 -332
1500850214.265692 30070746 0 2529321 2820021 -160 -348
1500850214.267783 30072955 1 2275907 3103939 99 219
1500850214.272872 30077880 0 2529322 2819951 -149 -391
1500850214.277851 30083185 1 2275893 3103950 80 216
1500850214.279821 30085013 0 2529279 2819919 -180 -396
1500850214.286950 30092147 0 2529255 2819861 -191 -425
1500850214.288365 30093768 1 2275912 3103909 93 165
1500850214.294115 30099280 0 2529233 2819863 -199 -396
1500850214.298304 30103534 1 2275901 3103866 77 115
1500850214.301493 30106414 0 2529222 2819827 -196 -405
1500850214.308456 30113548 0 2529256 2819790 -151 -414
1500850214.309916 30115173 1 2275886 3103841 59 85
1500850214.315587 30120682 0 2529220 2819815 -175 -364
1500850214.318683 30124103 1 2275864 3103798 35 40
1500850214.322803 30127815 0 2529215 2819789 -168 -365
1500850214.329103 30134333 1 2275850 3103740 20 -16
1500850214.330450 30134949 0 2529222 2819772 -150 -358
1500850214.336898 30142083 0 2529194 2819785 -166 -323
1500850214.339046 30144562 1 2275839 3103709 9 -44
1500850214.344069 30149216 0 2529210 2819776 -140 -311
1500850214.349379 30154792 1 2275835 3103664 5 -83
1500850214.351037 30156349 0 2529214 2819763 -127 -303
1500850214.358173 30163483 0 2529187 2819777 -144 -270
1500850214.359524 30164911 1 2275830 3103616 0 -122
1500850214.365330 30170616 0 2529193 2819759 -129 -270
1500850214.369777 30175250 1 2275783 3103580 -44 -148
1500850214.372378 30177749 0 2529195 2819790 -119 -224
1500850214.379703 30184882 0 2529191 2819774 -115 -225
1500850214.381073 30186507 1 2275800 3103571 -25 -147
1500850214.386702 30192016 0 2529196 2819767 -103 -217
1500850214.390150 30195599 1 2275779 3103531 -43 -175
1500850214.393809 30199149 0 2529161 2819745 -129 -224
1500850214.400403 30205936 1 2275762 3103514 -56 -180
1500850214.401939 30206282 0 2529173 2819725 -109 -228
1500850214.407936 30213416 0 2529161 2819740 -113 -199
1500850214.410500 30216165 1 2275765 3103493 -49 -188
1500850214.414996 30220549 0 2529167 2819770 -100 -158
1500850214.420760 30226394 1 2275735 3103483 -74 -185
1500850214.422131 30227683 0 2529183 2819778 -78 -140
1500850214.429307 30234817 0 2529195 2819826 -61 -86
1500850214.430831 30236624 1 2275754 3103495 -51 -162
1500850214.436319 30241951 0 2529182 2819835 -69 -72
1500850214.441015 30246854 1 2275747 3103492 -54 -154
1500850214.443370 30249084 0 2529211 2819815 -37 -86
1500850214.450626 30256218 0 2529195 2819846 -49 -51
1500850214.452014 30257794 1 2275748 3103502 -49 -135
1500850214.457655 30263351 0 2529199 2819891 -42 -5
1500850214.461428 30267312 1 2275740 3103504 -53 -124
1500850214.464704 30270484 0 2529199 2819901 -39 5
1500850214.471680 30277432 1 2275749 3103532 -41 -90
1500850214.473245 30277618 0 2529200 2819885 -35 -10
1500850214.478906 30284752 0 2529203 2819916 -30 20
1500850214.482083 30287771 1 2275764 3103537 -24 -79
1500850214.486139 30291886 0 2529222 2819920 -10 23
1500850214.492041 30298001 1 2275772 3103550 -15 -61
1500850214.493600 30299020 0 2529222 2819941 -9 42
1500850214.500308 30306154 0 2529221 2819925 -9 25
1500850214.502240 30308230 1 2275772 3103587 -14 -22
1500850214.507483 30313288 0 2529203 2819963 -25 60
1500850214.512498 30318460 1 2275765 3103602 -19 -6
1500850214.514566 30320423 0 2529209 2819952 -17 46
1500850214.521825 30327556 0 2529206 2819916 -18 10
1500850214.523074 30329113 1 2275774 3103629 -9 20
1500850214.528680 30334690 0 2529216 2819957 -7 48
1500850214.532838 30338811 1 2275798 3103644 15 33
1500850214.536016 30341823 0 2529183 2819968 -37 56
1500850214.543006 30348957 0 2529253 2819942 31 29
1500850214.544350 30350494 1 2275786 3103669 3 55
1500850214.550002 30356091 0 2529224 2819972 2 56
1500850214.553164 30359378 1 2275810 3103685 26 67
1500850214.557196 30363224 0 2529205 2819975 -15 56
1500850214.563574 30369607 1 2275811 3103710 26 87
1500850214.564832 30370357 0 2529232 2819978 12 56
1500850214.571400 30377491 0 2529201 2819990 -17 64
1500850214.573724 30379837 1 2275811 3103720 25 91
1500850214.578550 30384625 0 2529215 2819992 -2 62
1500850214.583811 30390066 1 2275818 3103727 30 92
1500850214.585489 30391758 0 2529218 2819977 1 45
1500850214.593107 30398892 0 2529206 2820015 -10 78
1500850214.594340 30400448 1 2275814 3103699 25 60
1500850214.599908 30406025 0 2529208 2820005 -7 64
1500850214.604252 30410525 1 2275796 3103717 7 74
1500850214.606972 30413159 0 2529219 2820037 4 90
1500850214.614172 30420293 0 2529217 2820026 2 75
1500850214.615632 30421804 1 2275800 3103724 11 76
1500850214.621212 30427426 0 2529209 2820049 -5 92
1500850214.624750 30430984 1 2275830 3103730 39 77
1500850214.628304 30434559 0 2529206 2820062 -7 99
1500850214.634970 30441214 1 2275811 3103754 19 95
1500850214.636361 30441694 0 2529221 2820075 8 105
1500850214.642703 30448827 0 2529241 2820100 27 122
1500850214.644887 30451444 1 2275834 3103764 40 99
1500850214.649835 30455961 0 2529229 2820126 15 139
1500850214.655248 30461674 1 2275813 3103770 18 99
1500850214.657052 30463094 0 2529247 2820131 31 135
1500850214.664021 30470228 0 2529228 2820136 12 132
1500850214.665524 30471902 1 2275820 3103779 24 102
1500850214.671033 30477361 0 2529240 2820148 23 135
1500850214.675632 30482131 1 2275819 3103783 22 100
1500850214.678151 30484494 0 2529236 2820177 18 154
1500850214.685412 30491628 0 2529266 2820144 45 114
1500850214.686728 30493188 1 2275864 3103802 63 112
1500850214.692349 30498761 0 2529244 2820172 22 134
1500850214.696001 30502480 1 2275847 3103806 44 109
1500850214.699619 30505894 0 2529227 2820166 5 120
1500850214.706425 30512819 1 2275853 3103814 47 110
1500850214.707629 30513027 0 2529235 2820154 13 102
1500850214.713592 30520160 0 2529238 2820184 15 124
1500850214.716465 30523048 1 2275835 3103823 28 112
1500850214.720680 30527293 0 2529265 2820204 40 135
1500850214.726544 30533277 1 2275857 3103830 47 112
1500850214.727965 30534426 0 2529289 2820240 60 161
1500850214.734878 30541560 0 2529265 2820265 34 175
1500850214.736821 30543507 1 2275846 3103836 34 111
1500850214.741994 30548694 0 2529277 2820299 44 196
1500850214.746867 30553628 1 2275852 3103830 38 99
1500850214.749284 30555827 0 2529271 2820326 36 210
1500850214.756422 30562960 0 2529274 2820313 37 185
1500850214.757655 30564521 1 2275850 3103831 34 94
1500850214.763344 30570093 0 2529278 2820342 39 201
1500850214.767262 30574086 1 2275865 3103832 46 90
1500850214.770689 30577227 0 2529276 2820335 35 182
1500850214.777693 30584428 1 2275864 3103847 43 99
1500850214.778994 30584360 0 2529283 2820308 40 146
1500850214.784633 30591493 0 2529295 2820357 49 183
1500850214.787772 30594655 1 2275848 3103862 26 107
1500850214.791875 30598627 0 2529280 2820349 32 165
1500850214.797963 30604884 1 2275851 3103858 28 97
1500850214.801294 30605761 0 2529333 2820376 80 180
1500850214.806179 30612895 0 2529292 2820365 37 159
1500850214.808333 30615005 1 2275842 3103870 18 103
1500850214.813184 30620028 0 2529284 2820390 28 173
1500850214.818318 30625345 1 2275856 3103846 30 75
1500850214.820295 30627162 0 2529312 2820386 53 159
1500850214.827370 30634296 0 2529287 2820375 27 139
1500850214.828714 30635853 1 2275863 3103861 35 85
1500850214.834362 30641429 0 2529297 2820423 35 176
1500850214.838635 30645695 1 2275849 3103856 20 75
1500850214.841461 30648563 0 2529301 2820404 37 148
1500850214.848583 30655696 0 2529341 2820429 73 163
1500850214.849918 30657252 1 2275856 3103866 26 80
1500850214.855843 30662829 0 2529282 2820442 14 165
1500850214.859203 30666263 1 2275864 3103857 32 67
1500850214.862903 30669964 0 2529317 2820468 46 180
1500850214.869422 30676383 1 2275841 3103876 9 81
1500850214.870774 30677097 0 2529327 2820461 53 163
1500850214.877182 30684230 0 2529308 2820468 32 160
1500850214.879347 30686721 1 2275855 3103883 22 83
1500850214.884292 30691363 0 2529306 2820487 29 168
1500850214.889560 30696950 1 2275835 3103869 2 65
1500850214.891190 30698496 0 2529331 2820482 51 153
1500850214.898273 30705630 0 2529300 2820504 19 165
1500850214.899737 30707187 1 2275865 3103873 30 65
1500850214.905363 30712764 0 2529328 2820540 45 189
1500850214.909843 30717409 1 2275853 3103883 17 71
1500850214.912467 30719898 0 2529356 2820568 69 204
1500850214.919862 30727032 0 2529342 2820579 52 202
1500850214.920970 30727531 1 2275854 3103881 17 65
1500850214.926787 30734167 0 2529351 2820598 58 208
1500850214.930203 30737871 1 2275855 3103886 17 66
1500850214.933874 30741302 0 2529377 2820638 79 233
1500850214.940549 30748103 1 2275862 3103916 23 90
1500850214.941785 30748437 0 2529354 2820617 53 199
1500850214.948045 30755572 0 2529364 2820640 60 209
1500850214.950498 30758334 1 2275870 3103905 30 75
1500850214.955099 30762706 0 2529356 2820655 49 210
1500850214.960800 30768566 1 2275850 3103920 10 85
1500850214.962076 30769841 0 2529383 2820662 72 204
1500850214.969328 30776976 0 2529382 2820686 67 214
1500850214.970870 30778797 1 2275858 3103931 17 90
1500850214.976454 30784110 0 2529366 2820671 48 187
1500850214.981144 30789028 1 2275869 3103940 27 93
1500850214.983499 30791245 0 2529368 2820695 47 198
1500850214.990909 30798380 0 2529384 2820707 60 197
1500850214.991999 30799149 1 2275897 3103939 52 87
1500850214.997671 30805515 0 2529375 2820749 48 225
1500850215.001430 30809489 1 2275887 3103960 40 102
1500850215.004896 30812649 0 2529384 2820750 54 212
1500850215.011838 30819719 1 2275867 3103972 19 107
1500850215.013031 30819784 0 2529390 2820727 57 178
1500850215.018979 30826920 0 2529381 2820762 45 200
1500850215.022165 30829950 1 2275889 3103955 39 85
1500850215.026133 30834055 0 2529385 2820776 46 201
1500850215.032073 30840181 1 2275877 3103986 26 109
1500850215.033394 30841190 0 2529400 2820791 58 203
1500850215.040404 30848326 0 2529389 2820796 45 195
1500850215.042249 30850412 1 2275886 3103994 33 110
1500850215.047485 30855460 0 2529395 2820832 48 217
1500850215.052379 30860643 1 2275876 3103993 22 103
1500850215.054538 30862594 0 2529410 2820848 60 219
1500850215.061827 30869730 0 2529412 2820839 59 197
1500850215.063050 30871286 1 2275892 3103993 36 97
1500850215.068657 30876865 0 2529432 2820908 75 250
1500850215.072713 30881106 1 2275889 3104026 31 122
1500850215.075884 30883999 0 2529435 2820923 74 249
1500850215.082992 30891134 0 2529476 2820945 108 255
1500850215.084324 30892711 1 2275911 3104039 50 127
1500850215.090009 30898269 0 2529448 2820961 75 255
1500850215.093130 30901570 1 2275898 3104038 35 119
1500850215.097198 30905404 0 2529452 2820989 75 266
1500850215.103385 30911802 1 2275914 3104075 48 147
1500850215.104724 30912539 0 2529464 2820968 82 230
1500850215.111483 30919674 0 2529442 2820985 57 232
1500850215.113495 30921924 1 2275917 3104073 48 136
1500850215.118555 30926809 0 2529443 2820978 55 211
1500850215.123713 30932266 1 2275925 3104083 53 137
1500850215.125630 30933944 0 2529454 2820990 62 210
1500850215.132803 30941079 0 2529433 2820958 39 167
1500850215.134085 30942636 1 2275927 3104071 52 118
1500850215.139753 30948214 0 2529430 2820936 34 136
1500850215.144146 30952727 1 2275937 3104085 59 124
1500850215.150319 30955349 0 2529383 2820888 -12 83
1500850215.154151 30962484 0 2529396 2820799 1 -5
1500850215.155391 30962850 1 2275919 3104117 39 147
1500850215.161202 30969619 0 2529338 2820704 -53 -93
1500850215.164478 30973191 1 2275932 3104110 49 132
1500850215.168372 30976754 0 2529280 2820614 -104 -171
1500850215.174935 30983422 1 2275907 3104100 23 115
1500850215.176247 30983889 0 2529250 2820481 -125 -285
1500850215.182595 30991025 0 2529223 2820420 -142 -324
1500850215.184901 30993653 1 2275919 3104094 33 103
1500850215.189672 30998160 0 2529182 2820347 -171 -372
1500850215.195136 31003775 1 2275910 3104084 23 88
1500850215.196678 31005295 0 2529165 2820294 -176 -398
1500850215.204071 31012431 0 2529161 2820237 -168 -426
1500850215.205212 31014117 1 2275913 3104072 25 72
1500850215.211031 31019567 0 2529117 2820167 -198 -465
1500850215.215475 31024349 1 2275892 3104044 4 42
1500850215.217930 31026702 0 2529105 2820137 -196 -464
1500850215.225258 31033838 0 2529093 2820085 -195 -483
1500850215.226518 31034473 1 2275900 3104038 12 34
1500850215.232332 31040973 0 2529082 2820074 -193 -463
1500850215.235891 31044706 1 2275893 3104010 5 6
1500850215.239453 31048107 0 2529075 2820043 -187 -463
1500850215.246268 31054937 1 2275891 3103943 3 -57
1500850215.247585 31055242 0 2529075 2820026 -175 -450
1500850215.253645 31062377 0 2529054 2820050 -183 -399
1500850215.256371 31065277 1 2275866 3103919 -20 -75
1500850215.260893 31069512 0 2529068 2820038 -158 -385
1500850215.266546 31075399 1 2275857 3103858 -27 -127
1500850215.268019 31076646 0 2529089 2820031 -128 -367
1500850215.275087 31083781 0 2529052 2820034 -154 -341
1500850215.276734 31085630 1 2275863 3103862 -19 -115
1500850215.281959 31090916 0 2529046 2820029 -150 -324
1500850215.286864 31095972 1 2275838 3103822 -41 -145
1500850215.289055 31098051 0 2529046 2820039 -140 -294
1500850215.296410 31105186 0 2529049 2819998 -128 -314
1500850215.297744 31106811 1 2275831 3103802 -45 -154
1500850215.303439 31112321 0 2529058 2820044 -111 -251
1500850215.307378 31116437 1 2275822 3103794 -50 -151
1500850215.310472 31119455 0 2529056 2820026 -105 -252
1500850215.317581 31126668 1 2275818 3103771 -50 -163
1500850215.318961 31126589 0 2529064 2820019 -90 -242
1500850215.324613 31133723 0 2529035 2820043 -111 -204
1500850215.327769 31136900 1 2275820 3103788 -45 -136
1500850215.331966 31140857 0 2529027 2820037 -111 -196
1500850215.337894 31147131 1 2275820 3103778 -42 -136
1500850215.339343 31147990 0 2529069 2820011 -64 -208
1500850215.346081 31155124 0 2529037 2820017 -90 -189
1500850215.348080 31157363 1 2275811 3103773 -47 -132
1500850215.353176 31162259 0 2529040 2820025 -81 -169
1500850215.358271 31167594 1 2275800 3103810 -54 -89
1500850215.360230 31169394 0 2529045 2820020 -71 -163
1500850215.367506 31176529 0 2529020 2820018 -90 -154
1500850215.368693 31178128 1 2275819 3103786 -32 -105
1500850215.374450 31183663 0 2529037 2820032 -68 -131
1500850215.378729 31188056 1 2275830 3103814 -19 -72
1500850215.381611 31190797 0 2529056 2820056 -45 -100
1500850215.388700 31197930 0 2529085 2820062 -15 -88
1500850215.390193 31199507 1 2275808 3103816 -38 -65
1500850215.395805 31205064 0 2529054 2820084 -43 -61
1500850215.399112 31208408 1 2275821 3103823 -23 -54
1500850215.403118 31212198 0 2529053 2820111 -41 -31
1500850215.409330 31218748 1 2275831 3103846 -12 -29
1500850215.411105 31219333 0 2529078 2820136 -15 -5
1500850215.417477 31226468 0 2529066 2820155 -25 14
1500850215.419423 31228978 1 2275835 3103859 -7 -15
1500850215.424204 31233603 0 2529077 2820159 -13 17
1500850215.429731 31239099 1 2275822 3103864 -18 -9
1500850215.431559 31240737 0 2529097 2820188 7 44
1500850215.438642 31247871 0 2529073 2820164 -15 19
1500850215.439971 31249439 1 2275829 3103913 -10 38
1500850215.446132 31255005 0 2529092 2820191 4 44
1500850215.450414 31259561 1 2275846 3103928 7 50
1500850215.453013 31262140 0 2529055 2820193 -30 44
1500850215.460153 31269274 0 2529070 2820179 -14 29
1500850215.461182 31270834 1 2275857 3103934 17 53
1500850215.467199 31276408 0 2529072 2820202 -11 49
1500850215.470750 31280132 1 2275861 3103959 20 74
1500850215.474286 31283543 0 2529072 2820199 -10 44
1500850215.480809 31290362 1 2275865 3103973 23 83
1500850215.482154 31290678 0 2529061 2820177 -19 21
1500850215.488513 31297812 0 2529081 2820204 1 45
1500850215.490814 31300593 1 2275860 3103978 17 83
1500850215.495386 31304946 0 2529049 2820201 -29 40
1500850215.501413 31310825 1 2275894 3103974 48 75
1500850215.502761 31312081 0 2529084 2820202 6 39
1500850215.509871 31319215 0 2529073 2820208 -4 43
1500850215.511451 31320946 1 2275901 3103988 52 84
1500850215.516817 31326350 0 2529073 2820213 -3 45
1500850215.521719 31331286 1 2275871 3104005 21 95
1500850215.524119 31333485 0 2529070 2820210 -5 40
1500850215.531230 31340619 0 2529061 2820219 -13 46
1500850215.532580 31342176 1 2275876 3104038 25 120
1500850215.538096 31347754 0 2529050 2820248 -22 71
1500850215.542143 31351747 1 2275878 3104029 26 105
1500850215.545488 31354889 0 2529076 2820247 4 66
1500850215.552575 31361869 1 2275872 3104023 19 93
1500850215.553868 31362023 0 2529077 2820242 5 58
1500850215.559737 31369158 0 2529087 2820273 15 84
1500850215.562558 31372209 1 2275871 3104018 17 83
1500850215.566715 31376293 0 2529086 2820293 14 98
1500850215.572893 31382439 1 2275875 3104027 20 87
1500850215.574341 31383427 0 2529117 2820338 43 135
1500850215.581067 31390561 0 2529095 2820358 20 146
1500850215.583009 31392668 1 2275882 3104016 26 72
1500850215.588144 31397695 0 2529106 2820383 30 161
1500850215.593154 31402789 1 2275886 3104017 29 69
1500850215.595228 31404830 0 2529127 2820409 48 176
1500850215.602332 31411965 0 2529120 2820381 39 139
1500850215.603856 31413521 1 2275874 3104023 16 71
1500850215.609372 31419100 0 2529111 2820414 29 162
1500850215.613421 31423251 1 2275864 3104021 6 65
1500850215.616503 31426235 0 2529122 2820447 38 183
1500850215.623655 31433370 0 2529161 2820424 73 150
1500850215.625036 31433483 1 2275877 3104019 18 60
1500850215.630775 31440505 0 2529136 2820485 45 198
1500850215.633854 31443823 1 2275883 3104058 23 93
1500850215.637845 31447640 0 2529129 2820468 36 170
1500850215.644293 31454054 1 2275884 3104037 23 68
1500850215.645517 31454774 0 2529185 2820488 87 179
1500850215.652032 31461909 0 2529152 2820521 51 199
1500850215.654324 31464285 1 2275887 3104051 25 77
1500850215.659164 31469044 0 2529165 2820545 60 210
1500850215.664508 31474516 1 2275868 3104042 6 64
1500850215.666227 31476179 0 2529193 2820561 83 212
1500850215.673384 31483314 0 2529165 2820582 52 219
1500850215.674813 31484638 1 2275878 3104034 15 53
1500850215.680780 31490449 0 2529168 2820598 52 221
1500850215.684894 31494978 1 2275859 3104061 -3 75
1500850215.687673 31497583 0 2529194 2820630 74 238
1500850215.694720 31504718 0 2529242 2820685 115 275
1500850215.696212 31506294 1 2275886 3104080 23 89
1500850215.701914 31511852 0 2529220 2820720 88 291
1500850215.705384 31515441 1 2275890 3104086 26 90
1500850215.709086 31518987 0 2529225 2820745 88 297
1500850215.715654 31525562 1 2275890 3104107 25 105
1500850215.717019 31526121 0 2529222 2820766 80 299
1500850215.723192 31533256 0 2529225 2820760 78 275
1500850215.725709 31535901 1 2275894 3104098 28 90
1500850215.730326 31540390 0 2529220 2820752 69 251
1500850215.736041 31546023 1 2275910 3104105 42 91
1500850215.737400 31547525 0 2529234 2820763 78 246
1500850215.744597 31554660 0 2529213 2820777 54 244
1500850215.746125 31556254 1 2275889 3104117 20 97
1500850215.751767 31561794 0 2529217 2820755 55 209
1500850215.756401 31566484 1 2275908 3104135 37 108
1500850215.758715 31568928 0 2529237 2820747 71 189
1500850215.766021 31576063 0 2529226 2820761 57 191
1500850215.767362 31577623 1 2275904 3104118 31 86
1500850215.772962 31583197 0 2529220 2820776 48 194
1500850215.776776 31586949 1 2275889 3104146 15 107
1500850215.780171 31590332 0 2529212 2820818 38 222
1500850215.787145 31597290 1 2275899 3104153 24 107
1500850215.788369 31597467 0 2529241 2820786 63 179
1500850215.794340 31604601 0 2529249 2820821 67 201
1500850215.797099 31607412 1 2275918 3104165 41 112
1500850215.801543 31611736 0 2529237 2820829 52 196
1500850215.807776 31617643 1 2275924 3104175 45 115
1500850215.808876 31618871 0 2529259 2820833 70 188
1500850215.815708 31626005 0 2529257 2820870 64 211
1500850215.817399 31627983 1 2275922 3104174 41 107
1500850215.822708 31633139 0 2529272 2820861 75 190
1500850215.827679 31638215 1 2275922 3104187 39 113
1500850215.829858 31640273 0 2529262 2820885 61 201
1500850215.837033 31647408 0 2529278 2820888 73 192
1500850215.838405 31648968 1 2275922 3104207 37 125
1500850215.844123 31654543 0 2529276 2820911 67 202
1500850215.848043 31658679 1 2275916 3104204 30 115
1500850215.851160 31661677 0 2529270 2820932 58 210
1500850215.858259 31668915 1 2275925 3104187 37 92
1500850215.859705 31668811 0 2529293 2820896 76 164
1500850215.865410 31675945 0 2529269 2820925 49 181
1500850215.868395 31679142 1 2275920 3104196 30 95
1500850215.872622 31683079 0 2529284 2820906 60 152
1500850215.878917 31689265 1 2275928 3104212 36 105
1500850215.880079 31690213 0 2529313 2820895 84 133
1500850215.886755 31697348 0 2529268 2820904 37 134
1500850215.888707 31699496 1 2275923 3104201 30 89
1500850215.893874 31704482 0 2529264 2820890 31 113
1500850215.899142 31709728 1 2275919 3104222 25 104
1500850215.900911 31711616 0 2529296 2820930 60 144
1500850215.908080 31718751 0 2529274 2820934 36 139
1500850215.909371 31719959 1 2275914 3104229 19 105
1500850215.915223 31725885 0 2529283 2820959 43 154
1500850215.919320 31730300 1 2275927 3104248 30 117
1500850215.922319 31733020 0 2529281 2820968 39 153
1500850215.929503 31740155 0 2529321 2820968 75 144
1500850215.930795 31740422 1 2275930 3104258 31 120
1500850215.936572 31747289 0 2529291 2820998 43 164
1500850215.939697 31750763 1 2275929 3104259 29 114
1500850215.943787 31754423 0 2529301 2821041 50 195
1500850215.950058 31760994 1 2275924 3104261 23 109
1500850215.951368 31761558 0 2529294 2821022 41 165
1500850215.957708 31768692 0 2529289 2821033 34 165
1500850215.960116 31771225 1 2275931 3104268 29 109
1500850215.964907 31775826 0 2529313 2821040 55 162
1500850215.970300 31781456 1 2275923 3104286 20 120
1500850215.972157 31782960 0 2529307 2821038 46 150
1500850215.979143 31790094 0 2529305 2821072 42 173
1500850215.980532 31791686 1 2275943 3104278 38 105
1500850215.986293 31797229 0 2529313 2821088 47 178
1500850215.990684 31801916 1 2275935 3104270 29 91
1500850215.993549 31804363 0 2529319 2821094 50 173
1500850216.000509 31811498 0 2529331 2821091 59 160
1500850216.001859 31813054 1 2275939 3104270 31 86
1500850216.007520 31818632 0 2529300 2821092 27 151
1500850216.011025 31822268 1 2275934 3104297 25 106
1500850216.014688 31825766 0 2529290 2821099 16 149
1500850216.021465 31832608 1 2275952 3104310 41 112
1500850216.022798 31832900 0 2529315 2821094 39 135
1500850216.028794 31840035 0 2529306 2821108 29 140
1500850216.031470 31842840 1 2275933 3104296 21 92
1500850216.036112 31847170 0 2529308 2821103 30 127
1500850216.041747 31853070 1 2275938 3104320 25 109
1500850216.043150 31854305 0 2529325 2821084 45 102
1500850216.050109 31861439 0 2529283 2821035 3 50
1500850216.051988 31863300 1 2275938 3104286 24 71
1500850216.057391 31868573 0 2529253 2820955 -25 -28
1500850216.062099 31873422 1 2275948 3104317 32 96
1500850216.064531 31875708 0 2529216 2820865 -58 -110
1500850216.071531 31882842 0 2529188 2820752 -80 -209
1500850216.072949 31884441 1 2275948 3104311 30 85
1500850216.078709 31889978 0 2529148 2820655 -112 -286
1500850216.082504 31893996 1 2275948 3104328 29 96
1500850216.085845 31897112 0 2529103 2820567 -147 -350
1500850216.092851 31904227 1 2275941 3104329 21 91
1500850216.094270 31904248 0 2529063 2820421 -175 -465
1500850216.100068 31911383 0 2529023 2820375 -201 -479
1500850216.102935 31914350 1 2275930 3104336 10 92
1500850216.107363 31918517 0 2529007 2820308 -203 -511
1500850216.113248 31924691 1 2275917 3104331 -2 82
1500850216.114702 31925652 0 2528991 2820253 -205 -530
1500850216.121380 31932787 0 2528970 2820202 -211 -544
1500850216.123370 31934922 1 2275947 3104302 27 50
1500850216.128540 31939922 0 2528949 2820158 -217 -551
1500850216.133558 31945153 1 2275931 3104244 11 -7
1500850216.135615 31947057 0 2528915 2820111 -235 -560
1500850216.142812 31954192 0 2528926 2820070 -210 -563
1500850216.144113 31955817 1 2275914 3104236 -5 -14
1500850216.149941 31961326 0 2528907 2820076 -214 -522
1500850216.153985 31965613 1 2275897 3104181 -20 -64
1500850216.156930 31968461 0 2528881 2820025 -225 -537
1500850216.164052 31975596 0 2528914 2820016 -180 -511
1500850216.165478 31977221 1 2275889 3104148 -26 -90
1500850216.174952 31982731 0 2528880 2819979 -200 -513
1500850216.176037 31986073 1 2275855 3104086 -56 -142
1500850216.178537 31989866 0 2528885 2819981 -182 -479
1500850216.184682 31996304 1 2275863 3104055 -45 -162
1500850216.186174 31997001 0 2528899 2819951 -157 -477
1500850216.192586 32004137 0 2528862 2819956 -181 -442
1500850216.194726 32006534 1 2275842 3104021 -61 -183
1500850216.199878 32011272 0 2528868 2819970 -164 -401
1500850216.205031 32016656 1 2275837 3104010 -61 -181
1500850216.206803 32018408 0 2528877 2819969 -145 -376
1500850216.213920 32025543 0 2528847 2819980 -164 -342
1500850216.215264 32026886 1 2275816 3103949 -76 -226
1500850216.220897 32032678 0 2528858 2819988 -143 -313
1500850216.225241 32037227 1 2275810 3103962 -76 -199
1500850216.227927 32039813 0 2528876 2819965 -117 -315
1500850216.235180 32046948 0 2528872 2819976 -113 -285
1500850216.236540 32048569 1 2275822 3103927 -60 -219
1500850216.242379 32054082 0 2528833 2819952 -142 -289
1500850216.245698 32057580 1 2275809 3103936 -68 -196
1500850216.249367 32061217 0 2528822 2819929 -143 -292
1500850216.255887 32067920 1 2275809 3103945 -63 -175
1500850216.257366 32068352 0 2528824 2819923 -132 -279
1500850216.263584 32075487 0 2528833 2819923 -115 -261
1500850216.266006 32078151 1 2275795 3103912 -72 -195
1500850216.270682 32082622 0 2528847 2819936 -94 -232
1500850216.276198 32088382 1 2275809 3103947 -54 -150
1500850216.278107 32089758 0 2528856 2819955 -79 -199
1500850216.285015 32096893 0 2528841 2819971 -88 -171
1500850216.286484 32098503 1 2275809 3103971 -50 -118
1500850216.292034 32104029 0 2528849 2819996 -75 -136
1500850216.296643 32108844 1 2275815 3103957 -41 -123
1500850216.299174 32111164 0 2528853 2820003 -66 -120
1500850216.306373 32118300 0 2528857 2820007 -58 -108
1500850216.307718 32118966 1 2275818 3103979 -35 -94
1500850216.313246 32125435 0 2528846 2820026 -64 -83
1500850216.317075 32129306 1 2275806 3103996 -44 -72
1500850216.320468 32132570 0 2528867 2820028 -40 -75
1500850216.327399 32139537 1 2275821 3104007 -27 -57
1500850216.328726 32139704 0 2528864 2820015 -40 -82
1500850216.334649 32146840 0 2528861 2820056 -40 -38
1500850216.337512 32149767 1 2275813 3104046 -32 -16
1500850216.341696 32153974 0 2528860 2820039 -38 -51
1500850216.347615 32159997 1 2275826 3104057 -17 -4
1500850216.348941 32161109 0 2528874 2820018 -22 -67
1500850216.356047 32168243 0 2528846 2820012 -46 -68
1500850216.357737 32170227 1 2275863 3104064 19 3
1500850216.363190 32175378 0 2528840 2819993 -48 -81
1500850216.368007 32180457 1 2275846 3104105 2 42
1500850216.370109 32182512 0 2528828 2819995 -56 -74
1500850216.377346 32189647 0 2528831 2819969 -49 -93
1500850216.378764 32191227 1 2275842 3104112 -1 46
1500850216.384382 32196781 0 2528845 2820002 -32 -56
1500850216.388480 32200918 1 2275841 3104143 -1 73
1500850216.391668 32203915 0 2528834 2819995 -40 -59
1500850216.398676 32211039 1 2275849 3104142 7 68
1500850216.400022 32211050 0 2528843 2819984 -29 -65
1500850216.405741 32218184 0 2528846 2820031 -24 -16
1500850216.408713 32221271 1 2275841 3104132 0 55
1500850216.412901 32225319 0 2528837 2820030 -30 -15
1500850216.418911 32231612 1 2275862 3104152 20 71
1500850216.420423 32232454 0 2528898 2820028 30 -15
1500850216.427088 32239589 0 2528846 2820037 -20 -5
1500850216.428992 32241734 1 2275859 3104143 16 59
1500850216.434910 32246724 0 2528830 2820030 -33 -11
1500850216.439405 32252075 1 2275858 3104139 15 52
1500850216.441370 32253860 0 2528855 2820032 -7 -8
1500850216.448505 32260995 0 2528844 2820038 -16 -1
1500850216.449690 32262551 1 2275848 3104147 5 57
1500850216.455519 32268130 0 2528850 2820055 -9 15
1500850216.459796 32272428 1 2275852 3104133 9 41
1500850216.462463 32275265 0 2528867 2820074 8 32
1500850216.470743 32282401 0 2528888 2820089 28 45
1500850216.471767 32283934 1 2275853 3104144 10 49
1500850216.476912 32289537 0 2528844 2820089 -15 43
1500850216.480096 32292999 1 2275867 3104168 23 69
1500850216.484015 32296672 0 2528854 2820094 -4 45
1500850216.490452 32303121 1 2275856 3104153 12 51
1500850216.491670 32303808 0 2528887 2820084 28 33
1500850216.498147 32310943 0 2528856 2820126 -2 71
1500850216.500560 32313352 1 2275845 3104143 1 39
1500850216.505200 32318079 0 2528860 2820124 2 65
1500850216.510661 32323693 1 2275860 3104160 15 53
1500850216.512335 32325215 0 2528886 2820131 27 68
1500850216.519578 32332350 0 2528881 2820163 21 94
1500850216.520898 32333815 1 2275870 3104143 24 34
1500850216.526574 32339485 0 2528890 2820158 29 84
1500850216.531035 32344155 1 2275852 3104155 6 44
1500850216.533536 32346620 0 2528879 2820186 17 105
1500850216.540721 32353755 0 2528875 2820156 13 71
1500850216.542160 32355292 1 2275872 3104169 25 55
1500850216.547906 32360889 0 2528884 2820186 21 95
1500850216.551505 32364507 1 2275845 3104176 -1 59
1500850216.555163 32368024 0 2528882 2820177 18 81
1500850216.561925 32374848 1 2275857 3104166 11 46
1500850216.563205 32375160 0 2528894 2820163 29 63
1500850216.569293 32382296 0 2528876 2820172 11 68
1500850216.571967 32385079 1 2275841 3104165 -4 43
1500850216.576430 32389431 0 2528884 2820227 18 116
1500850216.582180 32395311 1 2275840 3104180 -4 55
1500850216.583578 32396567 0 2528913 2820237 45 119
1500850216.590779 32403702 0 2528890 2820250 21 124
1500850216.592280 32405433 1 2275860 3104176 15 48
1500850216.597809 32410838 0 2528907 2820265 36 131
1500850216.602489 32415665 1 2275863 3104199 17 67
1500850216.605091 32417973 0 2528937 2820276 62 134
1500850216.611973 32425108 0 2528909 2820287 32 136
1500850216.613426 32425896 1 2275862 3104191 15 56
1500850216.619168 32432243 0 2528913 2820314 34 153
1500850216.622931 32436236 1 2275862 3104200 15 61
1500850216.626182 32439378 0 2528937 2820330 55 159
1500850216.633017 32446468 1 2275852 3104222 5 78
1500850216.634623 32446513 0 2528939 2820326 54 146
1500850216.640249 32453648 0 2528936 2820381 48 189
1500850216.643383 32456698 1 2275869 3104201 21 54
1500850216.647587 32460783 0 2528932 2820375 42 172
1500850216.653441 32466819 1 2275864 3104238 15 86
1500850216.654990 32467919 0 2528960 2820398 66 183
1500850216.661855 32475055 0 2528941 2820387 45 162
1500850216.663816 32477160 1 2275855 3104243 6 86
1500850216.669038 32482190 0 2528952 2820381 53 147
1500850216.675316 32487282 1 2275879 3104250 29 88
1500850216.676627 32489325 0 2528932 2820381 31 138
1500850216.683265 32496460 0 2528942 2820340 39 91
1500850216.684506 32497514 1 2275877 3104257 26 90
1500850216.690457 32503595 0 2528937 2820400 32 142
1500850216.694368 32507746 1 2275872 3104266 20 93
1500850216.697313 32510730 0 2528914 2820397 9 131
1500850216.704510 32517865 0 2528989 2820414 79 139
1500850216.705905 32519421 1 2275890 3104279 36 100
1500850216.711475 32525000 0 2528963 2820440 50 155
1500850216.714825 32528209 1 2275872 3104266 17 82
1500850216.718674 32532136 0 2528954 2820465 39 169
1500850216.724896 32538551 1 2275896 3104299 39 108
1500850216.726231 32539270 0 2528992 2820474 73 167
1500850216.732793 32546406 0 2528969 2820477 47 160
1500850216.735114 32548674 1 2275889 3104295 30 98
1500850216.739888 32553541 0 2528960 2820490 36 163
1500850216.745361 32558906 1 2275887 3104316 27 112
1500850216.747009 32560675 0 2528980 2820504 53 166
1500850216.754127 32567810 0 2528976 2820495 46 148
1500850216.755642 32569138 1 2275885 3104328 24 117
1500850216.761194 32574945 0 2528964 2820502 32 146
1500850216.765573 32579479 1 2275888 3104312 26 95
1500850216.768349 32582080 0 2528986 2820520 51 154
1500850216.775686 32589216 0 2528994 2820530 56 154
1500850216.777046 32589603 1 2275894 3104317 30 94
1500850216.782715 32596351 0 2528993 2820520 52 135
1500850216.786123 32599946 1 2275897 3104326 31 97
1500850216.789837 32603487 0 2528993 2820526 49 133
1500850216.796426 32610179 1 2275893 3104334 26 99
1500850216.797653 32610622 0 2528991 2820558 45 155
1500850216.804310 32617758 0 2528983 2820578 35 165
1500850216.806783 32620411 1 2275904 3104332 35 91
1500850216.811144 32624893 0 2529001 2820588 50 165
1500850216.816808 32630644 1 2275889 3104353 19 105
1500850216.818422 32632028 0 2529002 2820563 48 132
1500850216.825311 32639163 0 2528983 2820572 28 133
1500850216.826757 32640877 1 2275905 3104363 33 108
1500850216.832389 32646298 0 2528988 2820585 31 137
1500850216.837043 32651001 1 2275898 3104381 25 119
1500850216.839491 32653433 0 2528995 2820603 36 146
1500850216.846642 32660568 0 2528993 2820583 32 119
1500850216.848025 32662128 1 2275898 3104368 24 100
1500850216.853772 32667704 0 2528986 2820602 24 130
1500850216.857343 32671575 1 2275897 3104354 22 81
1500850216.860724 32674839 0 2528985 2820591 22 112
1500850216.867610 32681696 1 2275910 3104384 33 105
1500850216.869091 32681973 0 2528996 2820540 31 58
1500850216.875042 32689108 0 2528987 2820561 21 75
1500850216.877829 32691926 1 2275897 3104384 19 99
1500850216.882087 32696242 0 2528976 2820544 10 55
1500850216.887927 32702156 1 2275904 3104391 25 100
1500850216.889261 32703376 0 2529009 2820565 41 72
1500850216.896225 32710511 0 2528979 2820592 11 93
1500850216.898088 32712387 1 2275899 3104391 19 94
1500850216.903384 32717646 0 2529012 2820595 42 90
1500850216.908370 32722728 1 2275906 3104396 25 93
1500850216.910698 32724780 0 2529026 2820637 53 124
1500850216.917667 32731914 0 2529006 2820630 31 110
1500850216.919129 32733474 1 2275893 3104401 12 92
1500850216.924952 32739049 0 2529029 2820657 51 129
1500850216.928770 32743081 1 2275913 3104408 30 93
1500850216.931869 32746184 0 2529026 2820636 45 102
1500850216.939055 32753313 1 2275905 3104424 21 103
1500850216.940387 32753318 0 2529036 2820630 52 90
1500850216.946112 32760452 0 2529015 2820614 30 70
1500850216.949081 32763653 1 2275904 3104417 19 90
1500850216.953268 32767587 0 2528988 2820566 3 21
1500850216.959770 32773775 1 2275910 3104430 24 97
1500850216.960906 32774721 0 2528996 2820503 11 -39
1500850216.967712 32781856 0 2528929 2820433 -52 -102
1500850216.969672 32784113 1 2275919 3104432 31 93
1500850216.974784 32788991 0 2528893 2820351 -82 -172
1500850216.979753 32794344 1 2275926 3104444 36 99
1500850216.981772 32796126 0 2528883 2820278 -86 -229
1500850216.988907 32803260 0 2528830 2820175 -130 -311
1500850216.990303 32804465 1 2275924 3104460 32 108
1500850216.995890 32810394 0 2528801 2820118 -149 -345
1500850217.000132 32814804 1 2275931 3104449 37 91
1500850217.002999 32817528 0 2528790 2820067 -150 -371
1500850217.010254 32824662 0 2528797 2819979 -134 -430
1500850217.011615 32826283 1 2275902 3104409 8 48
1500850217.017357 32831797 0 2528740 2819919 -179 -459
1500850217.020493 32835268 1 2275893 3104384 0 22
1500850217.024444 32838932 0 2528724 2819886 -182 -461
1500850217.030977 32845499 1 2275884 3104349 -8 -12
1500850217.032335 32846067 0 2528718 2819821 -176 -493
1500850217.038670 32853202 0 2528686 2819784 -195 -496
1500850217.040987 32855731 1 2275872 3104318 -18 -40
1500850217.045779 32860337 0 2528683 2819784 -185 -465
1500850217.051099 32865963 1 2275832 3104256 -54 -95
1500850217.052912 32867472 0 2528702 2819740 -155 -477
1500850217.059862 32874607 0 2528652 2819734 -192 -452
1500850217.061331 32876228 1 2275856 3104223 -28 -120
1500850217.067056 32881742 0 2528658 2819722 -174 -435
1500850217.071495 32886426 1 2275820 3104164 -60 -167
1500850217.074043 32888877 0 2528651 2819723 -169 -406
1500850217.081491 32896013 0 2528635 2819685 -173 -416
1500850217.082727 32896548 1 2275824 3104120 -52 -197
1500850217.088505 32903149 0 2528638 2819691 -159 -384
1500850217.092028 32906889 1 2275805 3104094 -66 -209
1500850217.095626 32910285 0 2528626 2819674 -160 -375
1500850217.102146 32917010 1 2275788 3104036 -77 -250
1500850217.103685 32917420 0 2528635 2819627 -141 -395
1500850217.109715 32924556 0 2528590 2819593 -174 -402
1500850217.112442 32927241 1 2275775 3104014 -84 -255
1500850217.116793 32931692 0 2528584 2819573 -168 -395
1500850217.122757 32937472 1 2275775 3104002 -78 -250
1500850217.124043 32938827 0 2528574 2819557 -166 -385
1500850217.131070 32945962 0 2528559 2819534 -169 -382
1500850217.132901 32947703 1 2275777 3103984 -71 -251
1500850217.138228 32953097 0 2528553 2819500 -164 -390
1500850217.143000 32958044 1 2275758 3103988 -84 -231
1500850217.145362 32960231 0 2528559 2819478 -148 -386
1500850217.152603 32967366 0 2528550 2819456 -147 -382
1500850217.153911 32968166 1 2275772 3103978 -65 -225
1500850217.159580 32974501 0 2528543 2819463 -144 -351
1500850217.163378 32978507 1 2275749 3103975 -82 -213
1500850217.166770 32981636 0 2528535 2819465 -142 -327
1500850217.173658 32988629 1 2275732 3103986 -92 -189
1500850217.175210 32988771 0 2528542 2819443 -126 -327
1500850217.180856 32995906 0 2528529 2819459 -130 -291
1500850217.183892 32998860 1 2275721 3103985 -96 -178
1500850217.187848 33003041 0 2528535 2819468 -116 -264
1500850217.194056 33009092 1 2275726 3104009 -85 -144
1500850217.195443 33010176 0 2528574 2819492 -72 -225
1500850217.202195 33017312 0 2528535 2819512 -104 -192
1500850217.204129 33019432 1 2275753 3104003 -54 -140
1500850217.209316 33024446 0 2528532 2819526 -100 -166
1500850217.214292 33029663 1 2275748 3104017 -55 -118
1500850217.216446 33031580 0 2528557 2819525 -70 -156
1500850217.223584 33038715 0 2528556 2819493 -66 -176
1500850217.224821 33039784 1 2275745 3104046 -54 -83
1500850217.230620 33045849 0 2528557 2819558 -60 -104
1500850217.234594 33050015 1 2275750 3104064 -45 -60
1500850217.237799 33052984 0 2528557 2819547 -56 -107
1500850217.244838 33060119 0 2528595 2819539 -16 -107
1500850217.246327 33060246 1 2275757 3104075 -35 -45
1500850217.251966 33067253 0 2528543 2819581 -63 -60
1500850217.255002 33070585 1 2275759 3104069 -30 -47
1500850217.259134 33074388 0 2528566 2819545 -37 -90
1500850217.265367 33080707 1 2275768 3104112 -19 -3
1500850217.266724 33081524 0 2528597 2819556 -5 -74
1500850217.273263 33088658 0 2528567 2819573 -32 -53
1500850217.275442 33090938 1 2275778 3104121 -8 6
1500850217.280421 33095793 0 2528574 2819578 -23 -45
1500850217.285687 33101279 1 2275783 3104148 -2 31
1500850217.287470 33102928 0 2528577 2819583 -18 -37
1500850217.294660 33110062 0 2528570 2819599 -23 -19
1500850217.295924 33111402 1 2275792 3104160 7 41
1500850217.301706 33117198 0 2528576 2819598 -15 -18
1500850217.306160 33121745 1 2275785 3104185 0 62
1500850217.308899 33124334 0 2528574 2819625 -15 9
1500850217.316006 33131470 0 2528582 2819597 -6 -17
1500850217.317270 33131868 1 2275807 3104161 21 36
1500850217.323073 33138605 0 2528574 2819610 -13 -3
1500850217.326474 33142099 1 2275772 3104183 -13 55
1500850217.330007 33145741 0 2528565 2819622 -20 9
1500850217.336774 33152330 1 2275770 3104172 -14 42
1500850217.338150 33152876 0 2528567 2819626 -16 13
1500850217.344425 33160012 0 2528571 2819647 -11 32
1500850217.346831 33162670 1 2275783 3104175 0 43
1500850217.351525 33167147 0 2528574 2819646 -7 30
1500850217.357114 33172902 1 2275785 3104180 2 45
1500850217.358634 33174282 0 2528579 2819644 -1 27
1500850217.365705 33181418 0 2528579 2819651 0 32
1500850217.367176 33183133 1 2275793 3104185 10 47
1500850217.372882 33188554 0 2528565 2819642 -13 22
1500850217.377472 33193364 1 2275807 3104209 23 67
1500850217.379903 33195689 0 2528585 2819671 7 48
1500850217.387011 33202825 0 2528580 2819636 2 13
1500850217.388314 33204340 1 2275797 3104189 13 45
1500850217.394139 33209960 0 2528583 2819681 5 55
1500850217.397776 33213716 1 2275765 3104193 -17 46
1500850217.401400 33217095 0 2528580 2819693 2 63
1500850217.407970 33223947 1 2275782 3104183 0 34
1500850217.409405 33224230 0 2528594 2819682 15 49
1500850217.415437 33231366 0 2528600 2819731 20 92
1500850217.418250 33234287 1 2275788 3104178 6 28
1500850217.422656 33238501 0 2528594 2819744 14 99
1500850217.428441 33244517 1 2275766 3104197 -15 45
1500850217.429759 33245636 0 2528618 2819759 36 107
1500850217.436807 33252772 0 2528616 2819780 32 120
1500850217.438520 33254637 1 2275784 3104193 3 39
1500850217.444169 33259907 0 2528617 2819815 31 146
1500850217.448977 33264867 1 2275787 3104177 6 22
1500850217.451133 33267042 0 2528648 2819805 59 128
1500850217.458387 33274177 0 2528624 2819828 33 142
1500850217.459517 33275096 1 2275783 3104190 2 33
1500850217.465248 33281312 0 2528645 2819836 51 141
1500850217.469170 33285326 1 2275787 3104192 6 33
1500850217.472424 33288446 0 2528641 2819877 45 171
1500850217.479361 33295665 1 2275789 3104226 8 63
1500850217.480973 33295581 0 2528660 2819842 60 128
1500850217.486725 33302716 0 2528658 2819883 55 159
1500850217.489603 33305787 1 2275773 3104207 -7 42
1500850217.493639 33309850 0 2528646 2819906 41 171
1500850217.499753 33316127 1 2275787 3104198 7 31
1500850217.501245 33316986 0 2528678 2819909 69 164
1500850217.508027 33324122 0 2528649 2819932 38 176
1500850217.509971 33326359 1 2275785 3104217 5 47
1500850217.515274 33331258 0 2528668 2819920 54 154
1500850217.520281 33336590 1 2275780 3104216 0 44
1500850217.522141 33338393 0 2528684 2819954 66 177
1500850217.529127 33345529 0 2528676 2819959 55 171
1500850217.530605 33346712 1 2275781 3104234 1 59
1500850217.536325 33352664 0 2528667 2819976 44 177
1500850217.540540 33357053 1 2275781 3104246 1 67
1500850217.543317 33359800 0 2528689 2820003 62 192
1500850217.550591 33366934 0 2528698 2819990 67 168
1500850217.551956 33368490 1 2275791 3104257 11 74
1500850217.557647 33374070 0 2528683 2820020 49 186
1500850217.561038 33377516 1 2275798 3104242 17 56
1500850217.564845 33381206 0 2528681 2820023 45 178
1500850217.571247 33387639 1 2275785 3104241 4 52
1500850217.572679 33388342 0 2528704 2820018 64 163
1500850217.579259 33395478 0 2528694 2820036 51 170
1500850217.581321 33397871 1 2275813 3104276 30 82
1500850217.585993 33402614 0 2528712 2820076 65 197
1500850217.591566 33408212 1 2275799 3104284 15 85
1500850217.593170 33409749 0 2528707 2820066 57 176
1500850217.600272 33416885 0 2528712 2820088 59 186
1500850217.601753 33418445 1 2275826 3104302 40 97
1500850217.607455 33424020 0 2528716 2820088 60 175
1500850217.611918 33428567 1 2275793 3104315 7 104
1500850217.614712 33431156 0 2528720 2820127 60 201
1500850217.621688 33438292 0 2528731 2820098 67 162
1500850217.623085 33438798 1 2275814 3104314 27 97
1500850217.628909 33445427 0 2528722 2820141 55 193
1500850217.632337 33449139 1 2275818 3104301 30 79
1500850217.636085 33452563 0 2528727 2820146 57 186
1500850217.642684 33459262 1 2275805 3104322 16 94
1500850217.643929 33459698 0 2528717 2820137 45 166
1500850217.650009 33466834 0 2528738 2820170 62 187
1500850217.652620 33469495 1 2275815 3104319 25 86
1500850217.657140 33473970 0 2528726 2820194 47 198
1500850217.662840 33479836 1 2275807 3104352 16 112
1500850217.664207 33481106 0 2528740 2820191 58 183
1500850217.671394 33488242 0 2528729 2820212 45 192
1500850217.673159 33490068 1 2275826 3104347 33 101
1500850217.678743 33495377 0 2528741 2820227 54 195
1500850217.683320 33500299 1 2275822 3104362 28 109
1500850217.685604 33502512 0 2528749 2820225 59 181
1500850217.692865 33509647 0 2528740 2820224 47 169
1500850217.694339 33510420 1 2275830 3104366 34 106
1500850217.699761 33516783 0 2528756 2820243 60 177
1500850217.703626 33520652 1 2275817 3104382 20 115
1500850217.706989 33523919 0 2528754 2820259 55 181
1500850217.713882 33530992 1 2275826 3104384 28 110
1500850217.715161 33531055 0 2528761 2820255 59 166
1500850217.721148 33538190 0 2528767 2820297 61 195
1500850217.723929 33541223 1 2275818 3104388 19 107
1500850217.728194 33545326 0 2528772 2820300 62 186
1500850217.734171 33551345 1 2275829 3104399 29 111
1500850217.735565 33552461 0 2528794 2820322 79 195
1500850217.742615 33559597 0 2528772 2820334 54 195
1500850217.744392 33561576 1 2275845 3104393 43 99
1500850217.749686 33566732 0 2528767 2820344 46 193
1500850217.754733 33571808 1 2275829 3104386 26 87
1500850217.756837 33573868 0 2528793 2820382 68 217
1500850217.763979 33581004 0 2528780 2820350 52 174
1500850217.765351 33582560 1 2275821 3104420 17 114
1500850217.770986 33588139 0 2528782 2820405 51 215
1500850217.775214 33592268 1 2275823 3104406 18 94
1500850217.778080 33595275 0 2528801 2820428 66 224
1500850217.785298 33602409 0 2528853 2820414 111 197
1500850217.786675 33602499 1 2275818 3104404 13 87
1500850217.792402 33609544 0 2528810 2820470 64 238
1500850217.795365 33612839 1 2275843 3104406 36 84
1500850217.802181 33616679 0 2528807 2820490 58 242
1500850217.806062 33622960 1 2275858 3104439 48 110
1500850217.807257 33623814 0 2528856 2820476 101 214
1500850217.813647 33630950 0 2528820 2820475 61 200
1500850217.815693 33633299 1 2275830 3104427 19 92
1500850217.820858 33638085 0 2528826 2820481 63 194
1500850217.826230 33643529 1 2275861 3104429 47 89
1500850217.828087 33645220 0 2528820 2820475 54 177
1500850217.835055 33652355 0 2528790 2820426 23 120
1500850217.836425 33653649 1 2275848 3104452 32 105
1500850217.842176 33659490 0 2528793 2820402 25 90
1500850217.846433 33663988 1 2275851 3104461 33 107
1500850217.849154 33666625 0 2528773 2820329 5 16
1500850217.856443 33673760 0 2528782 2820271 14 -39
1500850217.857701 33674108 1 2275854 3104475 34 114
1500850217.863442 33680895 0 2528715 2820186 -49 -116
1500850217.866803 33684338 1 2275863 3104464 41 97
1500850217.870593 33688031 0 2528683 2820099 -75 -190
1500850217.877131 33694569 1 2275845 3104456 22 84
1500850217.878635 33695167 0 2528636 2820001 -114 -270
1500850217.884870 33702303 0 2528606 2819937 -135 -313
1500850217.887160 33704799 1 2275844 3104458 20 81
1500850217.891941 33709438 0 2528579 2819861 -151 -364
1500850217.897398 33715028 1 2275853 3104434 28 54
1500850217.899043 33716573 0 2528570 2819802 -150 -396
1500850217.906126 33723709 0 2528560 2819748 -150 -421
1500850217.907451 33725367 1 2275842 3104430 16 47
1500850217.913177 33730845 0 2528543 2819739 -156 -403
1500850217.917682 33735487 1 2275824 3104392 -1 9
1500850217.920444 33737980 0 2528526 2819695 -162 -419
1500850217.927532 33745116 0 2528519 2819677 -158 -409
1500850217.928883 33746741 1 2275855 3104390 29 7
1500850217.934637 33752252 0 2528494 2819645 -171 -413
1500850217.938169 33756056 1 2275803 3104327 -21 -52
1500850217.941570 33759388 0 2528493 2819614 -161 -416
1500850217.948564 33766177 1 2275794 3104276 -28 -96
1500850217.949943 33766523 0 2528484 2819595 -159 -407
1500850217.955850 33773660 0 2528479 2819580 -153 -395
1500850217.958576 33776407 1 2275785 3104232 -34 -131
1500850217.963244 33780796 0 2528432 2819544 -187 -404
1500850217.968909 33786638 1 2275760 3104173 -55 -178
1500850217.970397 33787932 0 2528464 2819533 -145 -389
1500850217.977450 33795068 0 2528436 2819526 -162 -371
1500850217.979168 33796868 1 2275753 3104144 -58 -194
1500850217.984522 33802202 0 2528449 2819502 -139 -370
1500850217.989395 33807098 1 2275742 3104110 -64 -213
1500850217.991536 33809338 0 2528441 2819473 -137 -374
1500850217.998598 33816473 0 2528412 2819450 -155 -372
1500850218.000169 33817329 1 2275717 3104081 -83 -226
1500850218.005872 33823609 0 2528413 2819465 -144 -334
1500850218.009737 33827559 1 2275733 3104061 -62 -230
1500850218.012941 33830744 0 2528404 2819419 -143 -356
1500850218.019866 33837898 1 2275707 3104062 -82 -214
1500850218.021401 33837880 0 2528423 2819403 -116 -348
1500850218.027106 33845015 0 2528396 2819434 -134 -297
1500850218.030088 33848128 1 2275699 3104063 -84 -199
1500850218.034253 33852151 0 2528386 2819437 -135 -275
1500850218.040306 33858359 1 2275703 3104046 -75 -202
1500850218.041677 33859286 0 2528437 2819453 -78 -242
1500850218.048411 33866422 0 2528401 2819461 -106 -219
1500850218.050476 33868479 1 2275707 3104062 -66 -174
1500850218.055699 33873558 0 2528412 2819470 -89 -196
1500850218.060634 33878819 1 2275715 3104051 -54 -173
1500850218.062615 33880693 0 2528402 2819450 -92 -202
1500850218.069757 33887829 0 2528413 2819448 -75 -191
1500850218.071299 33888940 1 2275709 3104082 -56 -133
1500850218.076854 33894964 0 2528402 2819487 -80 -142
1500850218.080960 33899171 1 2275724 3104098 -38 -109
1500850218.084131 33902100 0 2528401 2819502 -75 -119
1500850218.091219 33909235 0 2528443 2819503 -30 -110
1500850218.092384 33909402 1 2275713 3104112 -45 -89
1500850218.098017 33916370 0 2528401 2819531 -67 -76
1500850218.101272 33919632 1 2275747 3104133 -10 -63
1500850218.105173 33923505 0 2528442 2819552 -24 -51
1500850218.111613 33929863 1 2275717 3104145 -37 -47
1500850218.112968 33930640 0 2528462 2819579 -3 -22
1500850218.119451 33937775 0 2528434 2819567 -29 -31
1500850218.121657 33940092 1 2275752 3104181 -1 -10
1500850218.126553 33944910 0 2528447 2819592 -15 -5
1500850218.131927 33950324 1 2275749 3104190 -3 0
1500850218.133796 33952045 0 2528422 2819588 -37 -8
1500850218.140781 33959181 0 2528436 2819604 -21 8
1500850218.142209 33960554 1 2275768 3104209 15 18
1500850218.147818 33966317 0 2528442 2819600 -14 4
1500850218.152327 33970894 1 2275763 3104224 10 31
1500850218.154977 33973452 0 2528434 2819595 -20 0
1500850218.162107 33980587 0 2528443 2819617 -10 21
1500850218.163423 33982143 1 2275754 3104256 1 60
1500850218.169188 33987723 0 2528442 2819612 -10 15
1500850218.172694 33991353 1 2275772 3104264 18 64
1500850218.176402 33994858 0 2528447 2819606 -4 9
1500850218.183270 34001474 1 2275777 3104281 22 76
1500850218.184500 34001994 0 2528420 2819585 -29 -11
1500850218.190579 34009129 0 2528440 2819607 -8 11
1500850218.193183 34011704 1 2275775 3104313 19 102
1500850218.197702 34016264 0 2528429 2819621 -17 24
1500850218.203376 34022044 1 2275781 3104307 24 90
1500850218.204948 34023399 0 2528449 2819629 3 30
1500850218.211875 34030534 0 2528439 2819644 -6 43
1500850218.213449 34032164 1 2275785 3104306 27 84
1500850218.218967 34037670 0 2528456 2819654 11 50
1500850218.223648 34042505 1 2275789 3104304 30 77
1500850218.226010 34044805 0 2528457 2819652 12 45
1500850218.233213 34051940 0 2528451 2819667 6 57
1500850218.234504 34053452 1 2275789 3104336 29 103
1500850218.240302 34059075 0 2528451 2819686 6 72
1500850218.244034 34062965 1 2275773 3104313 13 75
1500850218.247450 34066211 0 2528447 2819681 2 63
1500850218.254262 34073086 1 2275792 3104311 30 69
1500850218.255775 34073347 0 2528466 2819688 20 66
1500850218.261711 34080482 0 2528457 2819712 11 85
1500850218.264478 34083318 1 2275772 3104308 10 62
1500850218.268807 34087618 0 2528462 2819727 15 94
1500850218.274801 34093549 1 2275773 3104320 11 70
1500850218.276059 34094753 0 2528496 2819740 46 101
1500850218.282978 34101889 0 2528483 2819770 31 123
1500850218.284727 34103889 1 2275778 3104328 15 74
1500850218.290139 34109025 0 2528483 2819790 30 135
1500850218.295025 34114010 1 2275781 3104314 17 57
1500850218.297132 34116159 0 2528489 2819811 34 147
1500850218.304307 34123294 0 2528492 2819810 35 137
1500850218.305636 34124851 1 2275786 3104318 21 58
1500850218.311410 34130430 0 2528510 2819847 50 164
1500850218.315393 34134469 1 2275776 3104314 11 51
1500850218.318636 34137565 0 2528521 2819903 58 207
1500850218.325881 34144702 0 2528560 2819883 91 176
1500850218.327174 34146258 1 2275757 3104325 -7 59
1500850218.332782 34151835 0 2528535 2819927 62 207
1500850218.335807 34154928 1 2275768 3104332 4 62
1500850218.340006 34158971 0 2528542 2819937 65 204
1500850218.345978 34165158 1 2275780 3104331 15 58
1500850218.347389 34166106 0 2528594 2819963 110 216
1500850218.354082 34173241 0 2528558 2820013 70 250
1500850218.356156 34175388 1 2275791 3104346 25 69
1500850218.361191 34180377 0 2528565 2819996 73 219
1500850218.366379 34185618 1 2275776 3104348 10 67
1500850218.368264 34187513 0 2528567 2820032 71 240
1500850218.375399 34194648 0 2528564 2820020 64 214
1500850218.376742 34195848 1 2275777 3104343 11 59
1500850218.382702 34201783 0 2528575 2820058 71 237
1500850218.387012 34206077 1 2275784 3104356 17 68
1500850218.389729 34208918 0 2528586 2820072 77 236
1500850218.397066 34216053 0 2528617 2820084 102 233
1500850218.398358 34217629 1 2275762 3104371 -4 78
1500850218.403867 34223187 0 2528583 2820083 64 218
1500850218.407327 34226537 1 2275785 3104364 18 67
1500850218.411099 34230322 0 2528580 2820101 58 222
1500850218.417440 34236876 1 2275779 3104378 12 76
1500850218.418987 34237456 0 2528612 2820125 85 231
1500850218.425290 34244591 0 2528585 2820121 55 213
1500850218.427581 34246996 1 2275792 3104373 24 67
1500850218.432527 34251725 0 2528610 2820141 75 219
1500850218.437772 34257335 1 2275795 3104403 26 91
1500850218.439451 34258860 0 2528620 2820159 80 223
1500850218.446676 34265995 0 2528592 2820181 49 230
1500850218.447941 34267454 1 2275796 3104385 26 69
1500850218.453577 34273130 0 2528614 2820186 67 221
1500850218.458112 34277684 1 2275816 3104415 44 93
1500850218.460726 34280266 0 2528624 2820220 73 240
1500850218.467875 34287401 0 2528628 2820228 73 233
1500850218.469421 34287914 1 2275792 3104434 19 105
1500850218.475069 34294537 0 2528623 2820242 64 232
1500850218.478591 34298144 1 2275785 3104415 12 81
1500850218.482048 34301672 0 2528630 2820231 67 208
1500850218.488838 34308373 1 2275802 3104450 28 109
1500850218.490289 34308807 0 2528635 2820234 68 198
1500850218.496458 34315942 0 2528633 2820264 62 214
1500850218.499026 34318602 1 2275780 3104444 6 97
1500850218.503491 34323077 0 2528629 2820279 55 215
1500850218.509280 34328832 1 2275789 3104420 15 69
1500850218.510565 34330212 0 2528656 2820277 77 200
1500850218.517874 34337348 0 2528648 2820293 65 203
1500850218.519343 34339062 1 2275802 3104451 27 94
1500850218.524943 34344483 0 2528648 2820310 61 207
1500850218.529461 34349292 1 2275808 3104449 31 87
1500850218.531767 34351618 0 2528668 2820328 76 211
1500850218.539090 34358754 0 2528659 2820343 63 212
1500850218.540349 34359522 1 2275799 3104466 21 98
1500850218.546089 34365889 0 2528661 2820361 61 216
1500850218.549909 34369752 1 2275797 3104493 18 118
1500850218.553198 34373024 0 2528680 2820407 75 246
1500850218.560275 34380092 1 2275790 3104498 11 116
1500850218.561634 34380160 0 2528684 2820395 75 220
1500850218.567544 34387295 0 2528692 2820445 78 254
1500850218.570232 34390322 1 2275802 3104480 22 92
1500850218.574663 34394430 0 2528687 2820467 69 259
1500850218.580420 34400553 1 2275806 3104501 25 106
1500850218.582520 34401565 0 2528727 2820466 103 242
1500850218.588732 34408700 0 2528692 2820503 64 262
1500850218.590745 34410675 1 2275809 3104490 27 90
1500850218.595886 34415835 0 2528704 2820509 72 252
1500850218.600914 34420906 1 2275805 3104530 22 122
1500850218.602963 34422971 0 2528711 2820511 75 239
1500850218.610146 34430106 0 2528719 2820497 78 211
1500850218.611421 34431137 1 2275827 3104529 42 114
1500850218.617212 34437241 0 2528684 2820531 41 230
1500850218.621327 34441368 1 2275807 3104539 21 117
1500850218.624351 34444376 0 2528713 2820534 66 219
1500850218.631515 34451512 0 2528756 2820528 103 200
1500850218.632805 34453088 1 2275818 3104540 30 111
1500850218.638640 34458647 0 2528714 2820569 58 226
1500850218.641690 34461830 1 2275811 3104563 22 126
1500850218.645900 34465782 0 2528738 2820591 77 233
1500850218.651960 34472060 1 2275824 3104559 33 115
1500850218.653447 34472918 0 2528768 2820594 101 222
1500850218.659972 34480055 0 2528726 2820621 56 234
1500850218.662161 34482400 1 2275840 3104570 46 119
1500850218.667183 34487191 0 2528741 2820646 67 243
1500850218.672435 34492521 1 2275819 3104575 24 117
1500850218.674127 34494327 0 2528748 2820641 70 224
1500850218.682312 34501463 0 2528748 2820657 66 225
1500850218.683376 34502752 1 2275834 3104577 37 112
1500850218.688263 34508599 0 2528753 2820668 67 222
1500850218.692637 34512982 1 2275827 3104582 29 110
1500850218.695350 34515735 0 2528748 2820673 59 213
1500850218.702831 34522870 0 2528781 2820658 87 186
1500850218.703902 34524426 1 2275821 3104590 22 111
1500850218.709676 34530005 0 2528707 2820613 13 133
1500850218.712953 34533550 1 2275820 3104610 20 123
1500850218.716693 34537140 0 2528698 2820550 4 66
1500850218.723234 34543780 1 2275831 3104603 30 109
1500850218.725175 34544276 0 2528675 2820448 -17 -33
1500850218.731064 34551411 0 2528643 2820365 -45 -108
1500850218.733362 34553901 1 2275821 3104594 19 94
1500850218.738270 34558546 0 2528588 2820285 -93 -176
1500850218.743752 34564240 1 2275832 3104613 29 106
1500850218.745376 34565682 0 2528593 2820175 -82 -268
1500850218.752553 34572818 0 2528553 2820124 -114 -299
1500850218.753933 34574359 1 2275843 3104593 38 81
1500850218.759480 34579953 0 2528510 2820025 -147 -373
1500850218.764012 34584589 1 2275841 3104600 34 83
1500850218.766691 34587088 0 2528491 2819938 -155 -431
1500850218.773631 34594223 0 2528455 2819859 -179 -478
1500850218.774965 34594819 1 2275833 3104577 25 57
1500850218.780870 34601359 0 2528436 2819812 -185 -492
1500850218.784325 34605050 1 2275810 3104552 2 30
1500850218.787872 34608493 0 2528436 2819784 -173 -487
1500850218.794729 34615389 1 2275778 3104507 -28 -14
1500850218.796074 34615628 0 2528393 2819712 -202 -524
1500850218.804152 34622763 0 2528397 2819696 -185 -506
1500850218.805368 34625619 1 2275777 3104445 -27 -71
1500850218.809541 34629898 0 2528385 2819656 -184 -511
1500850218.815226 34635739 1 2275771 3104406 -30 -103
1500850218.816592 34637033 0 2528377 2819625 -180 -508
1500850218.823451 34644168 0 2528332 2819609 -210 -491
1500850218.825360 34645969 1 2275747 3104341 -50 -157
1500850218.830630 34651303 0 2528341 2819595 -188 -473
1500850218.835492 34656199 1 2275729 3104286 -63 -198
1500850218.837739 34658437 0 2528350 2819577 -167 -460
1500850218.844802 34665571 0 2528352 2819529 -154 -476
1500850218.846238 34667193 1 2275704 3104215 -82 -252
1500850218.852045 34672705 0 2528311 2819545 -182 -431
1500850218.855877 34676659 1 2275679 3104186 -100 -263
1500850218.859223 34679840 0 2528313 2819536 -168 -412
1500850218.866318 34686888 1 2275679 3104125 -93 -303
1500850218.867517 34686975 0 2528334 2819506 -137 -414
1500850218.873295 34694109 0 2528306 2819530 -154 -365
1500850218.876203 34697227 1 2275664 3104094 -101 -313
1500850218.880489 34701243 0 2528318 2819509 -133 -361
1500850218.886599 34707346 1 2275635 3104063 -121 -322
1500850218.888032 34708378 0 2528354 2819512 -90 -335
1500850218.894631 34715512 0 2528299 2819495 -135 -330
1500850218.896682 34717684 1 2275631 3104029 -117 -333
1500850218.901826 34722646 0 2528300 2819489 -125 -315
1500850218.906880 34727804 1 2275628 3103988 -112 -350
1500850218.908972 34729781 0 2528308 2819469 -109 -314
1500850218.916048 34736916 0 2528283 2819436 -125 -325
1500850218.917549 34738034 1 2275633 3103994 -100 -322
1500850218.923049 34744050 0 2528290 2819473 -110 -270
1500850218.927328 34748264 1 2275618 3103979 -107 -315
1500850218.930357 34751184 0 2528284 2819498 -108 -229
1500850218.937382 34758319 0 2528332 2819497 -56 -215
1500850218.938805 34758494 1 2275604 3103982 -113 -292
1500850218.944344 34765453 0 2528306 2819537 -76 -164
1500850218.947570 34768723 1 2275597 3103981 -112 -274
1500850218.951425 34772588 0 2528331 2819552 -47 -139
1500850218.957995 34778954 1 2275593 3103981 -108 -256
1500850218.959467 34779723 0 2528333 2819540 -42 -141
1500850218.965725 34786859 0 2528325 2819605 -46 -71
1500850218.968026 34789184 1 2275628 3103967 -68 -253
1500850218.972778 34793994 0 2528333 2819623 -35 -49
1500850218.978182 34799523 1 2275582 3103990 -106 -215
1500850218.979879 34801129 0 2528347 2819621 -19 -47
1500850218.987006 34808263 0 2528346 2819659 -18 -8
1500850218.988478 34809644 1 2275623 3104002 -60 -190
1500850218.994048 34815398 0 2528344 2819657 -18 -9
1500850218.998653 34819874 1 2275590 3104009 -87 -171
1500850219.001208 34822533 0 2528360 2819657 -1 -8
1500850219.008316 34829668 0 2528357 2819661 -3 -3
1500850219.009669 34831201 1 2275604 3104017 -68 -152
1500850219.015397 34836802 0 2528342 2819686 -16 21
1500850219.019100 34840440 1 2275590 3104028 -76 -132
1500850219.022646 34843937 0 2528339 2819659 -17 -5
1500850219.029173 34850560 1 2275591 3104015 -70 -135
1500850219.030633 34851072 0 2528332 2819669 -22 5
1500850219.036728 34858207 0 2528362 2819679 8 15
1500850219.039371 34860789 1 2275615 3104050 -43 -93
1500850219.043937 34865342 0 2528354 2819685 0 20
1500850219.049452 34871127 1 2275598 3104033 -56 -103
1500850219.050924 34872477 0 2528359 2819667 5 2
1500850219.058043 34879612 0 2528342 2819674 -11 9
1500850219.059600 34881247 1 2275602 3104049 -48 -81
1500850219.065274 34886747 0 2528352 2819676 0 11
1500850219.069962 34891587 1 2275606 3104055 -41 -70
1500850219.072185 34893882 0 2528352 2819671 0 6
1500850219.079403 34901017 0 2528357 2819680 5 15
1500850219.080802 34901707 1 2275622 3104065 -23 -56
1500850219.086603 34908152 0 2528339 2819679 -12 14
1500850219.090502 34911937 1 2275602 3104085 -40 -33
1500850219.093645 34915287 0 2528347 2819706 -3 39
1500850219.100708 34922167 1 2275601 3104078 -38 -37
1500850219.101941 34922421 0 2528370 2819676 19 9
1500850219.107930 34929556 0 2528358 2819717 7 47
1500850219.110734 34932505 1 2275620 3104078 -17 -34
1500850219.115074 34936690 0 2528346 2819722 -4 49
1500850219.120904 34942625 1 2275605 3104089 -30 -21
1500850219.122380 34943824 0 2528388 2819724 36 48
1500850219.129269 34950958 0 2528384 2819746 30 66
1500850219.131117 34952854 1 2275610 3104078 -23 -30
1500850219.136301 34958092 0 2528389 2819791 33 105
1500850219.141272 34963194 1 2275606 3104092 -25 -15
1500850219.143445 34965227 0 2528394 2819798 36 105
1500850219.150581 34972362 0 2528389 2819800 30 101
1500850219.151921 34973315 1 2275597 3104088 -31 -17
1500850219.157540 34979498 0 2528400 2819845 39 137
1500850219.161735 34983545 1 2275609 3104073 -17 -30
1500850219.164669 34986633 0 2528395 2819864 32 147
1500850219.172092 34993768 0 2528427 2819846 60 121
1500850219.173341 34993776 1 2275597 3104082 -27 -19
1500850219.179052 35000902 0 2528419 2819890 49 155
1500850219.182013 35004006 1 2275616 3104093 -7 -7
1500850219.186210 35008038 0 2528431 2819909 58 164
1500850219.192275 35014236 1 2275601 3104074 -20 -24
1500850219.193653 35015173 0 2528458 2819923 80 167
1500850219.200358 35022308 0 2528422 2819932 42 165
1500850219.202364 35024465 1 2275623 3104105 2 7
1500850219.207547 35029442 0 2528420 2819939 38 162
1500850219.212716 35034694 1 2275626 3104081 5 -15
1500850219.214529 35036577 0 2528431 2819960 46 172
1500850219.221733 35043712 0 2528446 2819972 58 173
1500850219.223039 35044923 1 2275624 3104096 3 0
1500850219.228704 35050847 0 2528451 2820009 60 197
1500850219.233048 35055151 1 2275617 3104102 -3 6
1500850219.235754 35057981 0 2528454 2820041 60 215
1500850219.243052 35065116 0 2528494 2820044 94 205
1500850219.244290 35065381 1 2275633 3104107 13 11
1500850219.250137 35072251 0 2528491 2820077 86 224
1500850219.253368 35075611 1 2275623 3104102 3 6
1500850219.257260 35079386 0 2528482 2820077 73 210
1500850219.263659 35085951 1 2275620 3104099 0 3
1500850219.265032 35086522 0 2528506 2820123 91 240
1500850219.271710 35093657 0 2528485 2820124 66 226
1500850219.273868 35096072 1 2275631 3104122 11 25
1500850219.278856 35100792 0 2528496 2820140 73 227
1500850219.284055 35106302 1 2275625 3104121 5 23
1500850219.285701 35107927 0 2528512 2820161 84 233
1500850219.292899 35115063 0 2528507 2820162 75 220
1500850219.294039 35116532 1 2275616 3104105 -3 7
1500850219.299791 35122198 0 2528486 2820173 51 217
1500850219.304370 35126762 1 2275635 3104116 15 17
1500850219.306930 35129333 0 2528509 2820188 70 218
1500850219.314154 35136468 0 2528513 2820183 70 200
1500850219.315482 35138024 1 2275629 3104142 9 41
1500850219.321406 35143603 0 2528512 2820193 65 197
1500850219.324656 35147332 1 2275623 3104166 3 61
1500850219.328392 35150738 0 2528524 2820212 73 203
1500850219.335156 35157452 1 2275639 3104176 18 67
1500850219.336368 35157873 0 2528517 2820206 62 185
1500850219.342748 35165007 0 2528513 2820219 55 186
1500850219.345221 35167683 1 2275647 3104209 25 94
1500850219.349634 35172142 0 2528505 2820198 45 155
1500850219.355496 35178022 1 2275658 3104221 34 100
1500850219.356842 35179276 0 2528531 2820207 67 154
1500850219.363935 35186411 0 2528532 2820226 64 163
1500850219.365603 35188252 1 2275659 3104220 33 93
1500850219.370934 35193545 0 2528529 2820237 58 164
1500850219.375748 35198372 1 2275673 3104264 45 129
1500850219.378268 35200680 0 2528549 2820266 74 181
1500850219.385227 35207815 0 2528551 2820282 72 185
1500850219.386608 35208602 1 2275680 3104279 49 135
1500850219.392369 35214950 0 2528555 2820313 72 203
1500850219.396077 35218941 1 2275685 3104280 51 128
1500850219.399280 35222084 0 2528545 2820326 59 203
1500850219.406439 35229062 1 2275702 3104310 64 149
1500850219.407674 35229219 0 2528567 2820319 76 184
1500850219.413614 35236353 0 2528567 2820378 72 228
1500850219.416524 35239292 1 2275731 3104298 88 129
1500850219.420792 35243487 0 2528565 2820393 66 228
1500850219.426860 35249521 1 2275712 3104316 65 138
1500850219.428163 35250621 0 2528629 2820421 122 240
1500850219.435007 35257755 0 2528599 2820453 87 255
1500850219.436902 35259861 1 2275723 3104337 72 150
1500850219.442063 35264890 0 2528601 2820475 84 260
1500850219.446998 35269982 1 2275723 3104331 68 135
1500850219.449098 35272024 0 2528605 2820482 83 251
1500850219.456223 35279158 0 2528591 2820468 65 223
1500850219.457604 35280212 1 2275701 3104338 44 134
1500850219.463425 35286293 0 2528617 2820525 86 263
1500850219.467414 35290550 1 2275722 3104355 61 142
1500850219.470506 35293427 0 2528657 2820562 119 282
1500850219.477693 35300562 0 2528682 2820574 135 276
1500850219.479191 35300671 1 2275713 3104358 49 136
1500850219.484890 35307696 0 2528650 2820583 97 268
1500850219.487732 35310900 1 2275741 3104358 73 128
1500850219.491868 35314830 0 2528630 2820582 73 251
1500850219.498119 35321129 1 2275708 3104353 38 116
1500850219.499550 35321964 0 2528657 2820621 94 272
1500850219.506072 35329098 0 2528652 2820609 84 244
1500850219.508145 35331358 1 2275719 3104347 46 104
1500850219.513164 35336232 0 2528634 2820609 62 229
1500850219.518403 35341587 1 2275707 3104349 32 100
1500850219.520214 35343366 0 2528638 2820614 62 220
1500850219.527328 35350501 0 2528650 2820622 70 214
1500850219.528616 35351815 1 2275718 3104352 41 97
1500850219.534467 35357635 0 2528642 2820644 59 222
1500850219.538825 35362045 1 2275717 3104341 38 81
1500850219.541492 35364770 0 2528653 2820646 66 210
1500850219.548636 35371904 0 2528688 2820676 95 225
1500850219.550008 35373460 1 2275718 3104356 37 90
1500850219.555704 35379038 0 2528658 2820693 61 227
1500850219.559239 35382503 1 2275720 3104364 37 92
1500850219.563011 35386172 0 2528662 2820705 61 225
1500850219.569605 35392731 1 2275728 3104346 43 70
1500850219.570798 35393307 0 2528666 2820716 61 222
1500850219.577180 35400441 0 2528686 2820755 76 245
1500850219.579701 35403069 1 2275730 3104360 43 79
1500850219.584306 35407575 0 2528698 2820784 83 257
1500850219.589803 35413188 1 2275724 3104368 35 82
1500850219.591284 35414709 0 2528718 2820815 97 270
1500850219.598505 35421844 0 2528695 2820830 70 268
1500850219.600079 35423417 1 2275729 3104373 38 82
1500850219.605547 35428978 0 2528700 2820813 71 236
1500850219.610092 35433645 1 2275739 3104382 45 86
1500850219.612644 35436112 0 2528703 2820791 70 201
1500850219.619802 35443247 0 2528659 2820708 25 111
1500850219.621099 35443874 1 2275735 3104401 39 99
1500850219.626878 35450381 0 2528619 2820630 -14 31
1500850219.630579 35454102 1 2275741 3104415 43 106
1500850219.634240 35457515 0 2528591 2820532 -39 -62
1500850219.640894 35464331 1 2275764 3104457 62 139
1500850219.642587 35464649 0 2528556 2820393 -69 -188
1500850219.648341 35471783 0 2528520 2820315 -98 -249
1500850219.650875 35474560 1 2275759 3104455 54 129
1500850219.655369 35478917 0 2528494 2820224 -116 -318
1500850219.661322 35484788 1 2275767 3104440 59 107
1500850219.662745 35486051 0 2528476 2820134 -125 -382
1500850219.669751 35493185 0 2528425 2820069 -165 -419
1500850219.671280 35495016 1 2275764 3104449 53 109
1500850219.678931 35500319 0 2528382 2819972 -195 -483
1500850219.681747 35505246 1 2275766 3104422 52 77
1500850219.683965 35507452 0 2528378 2819922 -186 -499
1500850219.691172 35514586 0 2528361 2819847 -190 -538
1500850219.692446 35515474 1 2275738 3104412 23 63
1500850219.698185 35521719 0 2528327 2819816 -210 -533
1500850219.702070 35525702 1 2275750 3104374 33 24
1500850219.705206 35528853 0 2528318 2819781 -205 -532
1500850219.712501 35535929 1 2275744 3104300 26 -46
1500850219.713804 35535986 0 2528339 2819717 -172 -558
1500850219.719421 35543120 0 2528301 2819721 -196 -519
1500850219.722446 35546267 1 2275707 3104269 -10 -72
1500850219.726724 35550254 0 2528302 2819713 -182 -494
1500850219.732755 35556495 1 2275701 3104222 -15 -111
1500850219.734225 35557388 0 2528307 2819674 -165 -499
1500850219.740913 35564523 0 2528267 2819659 -192 -481
1500850219.742869 35566724 1 2275667 3104156 -45 -165
1500850219.747885 35571657 0 2528284 2819651 -164 -458
1500850219.752943 35576953 1 2275642 3104081 -65 -225
1500850219.754943 35578790 0 2528290 2819631 -148 -448
1500850219.762125 35585924 0 2528275 2819608 -152 -441
1500850219.763586 35587073 1 2275647 3104039 -56 -250
1500850219.769334 35593058 0 2528272 2819639 -145 -384
1500850219.773467 35597303 1 2275629 3103961 -69 -307
1500850219.776452 35600192 0 2528265 2819618 -142 -379
1500850219.783604 35607326 0 2528284 2819601 -115 -371
1500850219.784888 35608947 1 2275597 3103938 -94 -309
1500850219.790664 35614460 0 2528234 2819607 -154 -342
1500850219.793865 35617760 1 2275561 3103904 -121 -321
1500850219.797715 35621594 0 2528229 2819604 -149 -323
1500850219.804223 35628099 1 2275585 3103880 -90 -323
1500850219.806529 35628728 0 2528267 2819598 -104 -308
1500850219.811828 35635862 0 2528231 2819611 -131 -276
1500850219.814116 35638328 1 2275563 3103852 -105 -329
1500850219.818975 35642996 0 2528232 2819592 -121 -276
1500850219.824323 35648448 1 2275552 3103837 -108 -322
1500850219.826041 35650130 0 2528250 2819605 -96 -246
1500850219.833231 35657265 0 2528245 2819616 -94 -220
1500850219.834669 35658864 1 2275529 3103821 -122 -316
1500850219.840232 35664399 0 2528234 2819635 -98 -188
1500850219.844688 35669015 1 2275545 3103802 -99 -314
1500850219.847534 35671532 0 2528274 2819659 -54 -153
1500850219.854490 35678666 0 2528288 2819688 -37 -116
1500850219.855881 35679133 1 2275536 3103822 -101 -275
1500850219.861680 35685800 0 2528292 2819713 -30 -85
1500850219.865287 35689471 1 2275535 3103821 -95 -258
1500850219.868787 35692934 0 2528294 2819746 -26 -48
1500850219.875671 35699699 1 2275542 3103837 -82 -226
1500850219.876922 35700068 0 2528281 2819770 -36 -22
1500850219.882969 35707201 0 2528305 2819792 -11 0
1500850219.885731 35709926 1 2275541 3103844 -77 -205
1500850219.890005 35714335 0 2528309 2819800 -6 8
1500850219.896030 35720046 1 2275545 3103848 -68 -188
1500850219.897112 35721470 0 2528311 2819787 -3 -4
1500850219.904213 35728604 0 2528306 2819801 -7 10
1500850219.906032 35730384 1 2275579 3103881 -31 -145
1500850219.911565 35735738 0 2528302 2819817 -10 25
1500850219.916148 35740506 1 2275553 3103887 -53 -130
1500850219.918520 35742873 0 2528321 2819808 9 15
1500850219.925803 35750008 0 2528313 2819813 1 19
1500850219.926898 35751520 1 2275571 3103926 -32 -85
1500850219.932737 35757143 0 2528319 2819812 7 17
1500850219.936468 35760966 1 2275551 3103942 -48 -64
1500850219.939691 35764277 0 2528314 2819809 2 14
1500850219.947035 35771305 1 2275540 3103955 -55 -47
1500850219.948232 35771411 0 2528308 2819782 -3 -12
1500850219.954611 35778546 0 2528290 2819782 -19 -11
1500850219.957077 35781536 1 2275546 3103947 -45 -51
1500850219.961290 35785680 0 2528285 2819800 -22 7
1500850219.967246 35791657 1 2275575 3103976 -15 -20
1500850219.968654 35792814 0 2528321 2819783 14 -9
1500850219.975520 35799948 0 2528287 2819801 -18 9
1500850219.977516 35801995 1 2275559 3103982 -29 -13
1500850219.982670 35807082 0 2528278 2819799 -25 7
1500850219.987513 35812115 1 2275566 3103962 -20 -30
1500850219.989630 35814217 0 2528315 2819808 12 15
1500850219.996844 35821352 0 2528318 2819782 15 -10
1500850219.998112 35822908 1 2275564 3103995 -20 3
1500850220.003824 35828486 0 2528312 2819842 9 47
1500850220.007798 35832575 1 2275585 3103983 1 -8
1500850220.010980 35835619 0 2528320 2819867 16 68
1500850220.018092 35842752 0 2528350 2819862 44 60
1500850220.019509 35842805 1 2275562 3103971 -20 -18
1500850220.025215 35849886 0 2528331 2819882 24 75
1500850220.028175 35853033 1 2275560 3103963 -20 -24
1500850220.032230 35857020 0 2528338 2819899 30 87
1500850220.038671 35863261 1 2275555 3103938 -23 -45
1500850220.039886 35864153 0 2528368 2819921 57 103
1500850220.046443 35871288 0 2528344 2819945 31 120
1500850220.048490 35873489 1 2275584 3103965 6 -16
1500850220.053799 35878422 0 2528355 2819952 40 120
1500850220.058941 35883828 1 2275563 3103969 -14 -11
1500850220.060865 35885557 0 2528358 2819991 41 150
1500850220.067900 35892692 0 2528371 2819974 51 125
1500850220.069199 35894249 1 2275587 3103952 10 -26
1500850220.074824 35899826 0 2528360 2820003 38 145
1500850220.079194 35904177 1 2275567 3103925 -9 -49
1500850220.081976 35906960 0 2528374 2820028 49 160
1500850220.089250 35914095 0 2528402 2820037 73 159
1500850220.090398 35914406 1 2275574 3103954 -1 -18
1500850220.096167 35921229 0 2528372 2820044 41 156
1500850220.099811 35924636 1 2275565 3103959 -9 -12
1500850220.103287 35928364 0 2528391 2820070 57 171
1500850220.109786 35934865 1 2275567 3103949 -6 -20
1500850220.111333 35935499 0 2528396 2820065 59 156
1500850220.117557 35942634 0 2528400 2820076 60 157
1500850220.119881 35945203 1 2275556 3103937 -15 -30
1500850220.124759 35949769 0 2528389 2820096 46 166
1500850220.130201 35955322 1 2275560 3103926 -10 -38
1500850220.131807 35956903 0 2528406 2820094 60 154
1500850220.138830 35964038 0 2528399 2820136 50 184
1500850220.140287 35965551 1 2275565 3103931 -4 -30
1500850220.146046 35971172 0 2528403 2820134 51 171
1500850220.150587 35975888 1 2275546 3103931 -21 -28
1500850220.153056 35978306 0 2528429 2820164 73 189
1500850220.160157 35985441 0 2528410 2820146 51 161
1500850220.161526 35986008 1 2275570 3103926 3 -30
1500850220.167359 35992575 0 2528434 2820206 71 208
1500850220.171026 35996238 1 2275550 3103919 -15 -34
1500850220.174591 35999709 0 2528417 2820206 51 195
1500850220.183290 36006576 1 2275559 3103948 -5 -4
1500850220.184546 36006843 0 2528434 2820204 64 181
1500850220.188761 36013976 0 2528451 2820232 76 196
1500850220.191320 36016693 1 2275561 3103931 -2 -19
1500850220.195787 36021110 0 2528443 2820262 64 212
1500850220.201494 36027031 1 2275569 3103965 6 15
1500850220.203031 36028244 0 2528465 2820272 81 209
1500850220.210169 36035378 0 2528463 2820293 75 216
1500850220.211815 36037258 1 2275562 3103951 0 1
1500850220.217162 36042512 0 2528452 2820306 60 215
1500850220.221817 36047377 1 2275569 3103981 7 30
1500850220.224163 36049646 0 2528478 2820299 81 195
1500850220.231432 36056781 0 2528452 2820292 52 177
1500850220.232638 36058337 1 2275586 3103991 23 38
1500850220.238469 36063915 0 2528456 2820305 53 179
1500850220.242328 36067834 1 2275582 3103979 18 25
1500850220.245463 36071049 0 2528459 2820316 53 179
1500850220.252595 36078173 1 2275561 3104000 -2 44
1500850220.253991 36078183 0 2528469 2820307 60 160
1500850220.259881 36085317 0 2528474 2820355 61 195
1500850220.262704 36088293 1 2275570 3104020 7 60
1500850220.266918 36092452 0 2528470 2820370 54 197
1500850220.272979 36098632 1 2275581 3104018 17 55
1500850220.274363 36099586 0 2528517 2820407 95 220
1500850220.281161 36106721 0 2528491 2820421 65 220
1500850220.283025 36108752 1 2275572 3104037 8 70
1500850220.288147 36113855 0 2528494 2820432 64 217
1500850220.293364 36118982 1 2275587 3104045 22 74
1500850220.295373 36120990 0 2528510 2820446 75 217
1500850220.302613 36128124 0 2528508 2820435 69 194
1500850220.303885 36129684 1 2275607 3104051 40 75
1500850220.309641 36135259 0 2528503 2820466 60 211
1500850220.313773 36139548 1 2275598 3104041 30 61
1500850220.316742 36142392 0 2528513 2820479 66 210
1500850220.323736 36149527 0 2528549 2820495 96 212
1500850220.325293 36151087 1 2275583 3104040 15 57
1500850220.330994 36156662 0 2528515 2820512 59 215
1500850220.334173 36159895 1 2275606 3104046 36 60
1500850220.338115 36163796 0 2528511 2820534 52 223
1500850220.344456 36170124 1 2275594 3104036 23 47
1500850220.345896 36170930 0 2528559 2820543 94 218
1500850220.352351 36178065 0 2528549 2820588 79 247
1500850220.354626 36180462 1 2275582 3104050 11 58
1500850220.359397 36185200 0 2528533 2820613 60 255
1500850220.364709 36190581 1 2275593 3104055 21 60
1500850220.366566 36192334 0 2528568 2820627 90 253
1500850220.373619 36199468 0 2528561 2820654 78 263
1500850220.375003 36201025 1 2275614 3104071 40 72
1500850220.380671 36206602 0 2528565 2820664 77 256
1500850220.385151 36211038 1 2275618 3104069 42 66
1500850220.387852 36213736 0 2528573 2820693 80 268
1500850220.395011 36220871 0 2528606 2820716 106 273
1500850220.396510 36222447 1 2275595 3104070 18 63
1500850220.402097 36228005 0 2528581 2820709 76 250
1500850220.405476 36231604 1 2275619 3104083 40 72
1500850220.409084 36235139 0 2528570 2820715 61 240
1500850220.415800 36241723 1 2275625 3104090 44 75
1500850220.417206 36242272 0 2528592 2820725 78 235
1500850220.423566 36249406 0 2528585 2820725 67 221
1500850220.425853 36251951 1 2275616 3104097 33 77
1500850220.430474 36256540 0 2528577 2820715 56 198
1500850220.436280 36262290 1 2275603 3104091 19 67
1500850220.437856 36263674 0 2528592 2820693 67 165
1500850220.444844 36270808 0 2528565 2820634 38 100
1500850220.446351 36272409 1 2275642 3104111 55 82
1500850220.451731 36277942 0 2528523 2820568 -3 32
1500850220.456394 36282748 1 2275591 3104111 4 77
1500850220.458977 36285076 0 2528501 2820497 -23 -36
1500850220.466127 36292210 0 2528461 2820368 -59 -154
1500850220.467584 36292867 1 2275633 3104124 44 85
1500850220.473322 36299343 0 2528409 2820282 -104 -225
1500850220.476963 36303096 1 2275631 3104121 40 77
1500850220.480749 36306477 0 2528384 2820199 -120 -288
1500850220.487148 36313325 1 2275629 3104120 36 72
1500850220.488584 36313610 0 2528372 2820099 -123 -363
1500850220.494693 36320744 0 2528330 2820053 -154 -383
1500850220.497349 36323664 1 2275620 3104121 26 69
1500850220.501587 36327879 0 2528297 2819989 -175 -419
1500850220.507536 36333785 1 2275623 3104081 28 28
1500850220.509063 36335013 0 2528311 2819919 -150 -458
1500850220.515922 36342148 0 2528263 2819874 -185 -471
1500850220.517603 36344015 1 2275615 3104075 19 21
1500850220.523172 36349282 0 2528245 2819829 -190 -483
1500850220.527870 36354354 1 2275602 3104045 6 -8
1500850220.530234 36356416 0 2528238 2819815 -184 -465
1500850220.537276 36363550 0 2528221 2819732 -188 -513
1500850220.538621 36364474 1 2275583 3103990 -12 -59
1500850220.544398 36370684 0 2528220 2819749 -177 -465
1500850220.548161 36374703 1 2275568 3103924 -25 -117
1500850220.551367 36377817 0 2528217 2819748 -168 -436
1500850220.558607 36384932 1 2275564 3103883 -27 -148
1500850220.559996 36384951 0 2528235 2819703 -140 -450
1500850220.565620 36392085 0 2528203 2819735 -161 -391
1500850220.568546 36395270 1 2275544 3103824 -44 -194
1500850220.572830 36399219 0 2528197 2819749 -156 -353
1500850220.578898 36405390 1 2275522 3103780 -61 -223
1500850220.580785 36406353 0 2528238 2819733 -107 -345
1500850220.586898 36413487 0 2528194 2819719 -141 -336
1500850220.588968 36415619 1 2275517 3103736 -61 -250
1500850220.594005 36420621 0 2528176 2819727 -149 -307
1500850220.599218 36425957 1 2275487 3103713 -85 -255
1500850220.601142 36427755 0 2528214 2819701 -104 -312
1500850220.608366 36434889 0 2528196 2819680 -114 -312
1500850220.609591 36436077 1 2275491 3103677 -75 -272
1500850220.615522 36442024 0 2528183 2819706 -119 -268
1500850220.619764 36446415 1 2275463 3103660 -96 -270
1500850220.622647 36449158 0 2528192 2819698 -103 -258
1500850220.629678 36456293 0 2528204 2819704 -85 -236
1500850220.631074 36457891 1 2275461 3103610 -91 -300
1500850220.636918 36463428 0 2528178 2819709 -104 -216
1500850220.640133 36466874 1 2275442 3103582 -103 -307
1500850220.643837 36470563 0 2528189 2819706 -87 -205
1500850220.650533 36477103 1 2275438 3103568 -100 -300
1500850220.651724 36477698 0 2528201 2819721 -70 -178
1500850220.658068 36484832 0 2528189 2819745 -76 -144
1500850220.660387 36487224 1 2275437 3103545 -94 -302
1500850220.665380 36491966 0 2528212 2819778 -49 -104
1500850220.670720 36497562 1 2275417 3103568 -106 -261
1500850220.672481 36499101 0 2528239 2819810 -20 -67
1500850220.679451 36506235 0 2528230 2819831 -27 -43
1500850220.680764 36507681 1 2275453 3103572 -65 -240
1500850220.686675 36513369 0 2528249 2819856 -7 -16
1500850220.691130 36517911 1 2275430 3103593 -82 -205
1500850220.693520 36520503 0 2528252 2819857 -3 -14
1500850220.700762 36527638 0 2528257 2819896 2 24
1500850220.702154 36529149 1 2275444 3103594 -63 -191
1500850220.707854 36534772 0 2528280 2819904 24 30
1500850220.711278 36538369 1 2275437 3103597 -65 -176
1500850220.714948 36541907 0 2528264 2819911 8 35
1500850220.721594 36548708 1 2275452 3103649 -46 -116
1500850220.723009 36549041 0 2528278 2819937 21 58
1500850220.729075 36556176 0 2528275 2819935 17 53
1500850220.731706 36558937 1 2275463 3103652 -32 -105
1500850220.736165 36563311 0 2528270 2819951 12 65
1500850220.741913 36569167 1 2275463 3103673 -30 -78
1500850220.743253 36570446 0 2528288 2819927 29 39
1500850220.750504 36577581 0 2528278 2819923 18 33
1500850220.752035 36579287 1 2275489 3103686 -3 -60
1500850220.757563 36584716 0 2528271 2819935 11 43
1500850220.762300 36589626 1 2275471 3103699 -19 -44
1500850220.764577 36591850 0 2528261 2819911 1 18
1500850220.771733 36598986 0 2528252 2819921 -7 27
1500850220.773136 36600519 1 2275476 3103712 -13 -29
1500850220.778856 36606121 0 2528259 2819927 0 31
1500850220.782622 36610085 1 2275491 3103722 2 -17
1500850220.786104 36613256 0 2528256 2819922 -2 25
1500850220.792827 36620206 1 2275494 3103737 5 -1
1500850220.794109 36620391 0 2528265 2819893 7 -3
1500850220.800600 36627526 0 2528256 2819928 -1 30
1500850220.803155 36630545 1 2275489 3103746 0 8
1500850220.807285 36634661 0 2528268 2819931 11 31
1500850220.813172 36640665 1 2275501 3103731 12 -6
1500850220.814787 36641795 0 2528276 2819933 18 31
1500850220.821382 36648930 0 2528278 2819960 19 55
1500850220.823337 36650894 1 2275514 3103726 24 -10
1500850220.828429 36656064 0 2528292 2819973 31 64
1500850220.833502 36661232 1 2275486 3103730 -3 -5
1500850220.835578 36663199 0 2528277 2819976 15 63
1500850220.842851 36670334 0 2528262 2819946 0 31
1500850220.844123 36671351 1 2275499 3103735 10 0
1500850220.850028 36677470 0 2528290 2820026 27 105
1500850220.854033 36681581 1 2275493 3103739 4 4
1500850220.857130 36684604 0 2528264 2820011 1 85
1500850220.864134 36691739 0 2528322 2820033 56 101
1500850220.865485 36691810 1 2275506 3103744 16 9
1500850220.871133 36698873 0 2528311 2820058 43 119
1500850220.874302 36702038 1 2275498 3103742 8 7
1500850220.878521 36706007 0 2528298 2820062 29 116
1500850220.884540 36712376 1 2275490 3103742 0 7
1500850220.886111 36713142 0 2528341 2820096 68 141
1500850220.892598 36720277 0 2528318 2820139 43 173
1500850220.894876 36722497 1 2275484 3103749 -5 14
1500850220.899580 36727412 0 2528333 2820162 55 184
1500850220.904898 36732836 1 2275485 3103749 -3 14
1500850220.906825 36734548 0 2528356 2820180 74 190
1500850220.914006 36741683 0 2528326 2820173 42 172
1500850220.915532 36742956 1 2275484 3103726 -3 -8
1500850220.921136 36748818 0 2528339 2820208 52 195
1500850220.925261 36753185 1 2275499 3103753 12 18
1500850220.928103 36755953 0 2528352 2820203 61 179
1500850220.935483 36763089 0 2528374 2820205 78 170
1500850220.936802 36763416 1 2275489 3103746 2 11
1500850220.942520 36770224 0 2528355 2820247 56 199
1500850220.946015 36773755 1 2275487 3103759 0 23
1500850220.949622 36777359 0 2528377 2820236 74 177
1500850220.956108 36783875 1 2275497 3103767 10 30
1500850220.957519 36784494 0 2528379 2820261 72 190
1500850220.963643 36791629 0 2528367 2820269 57 186
1500850220.966196 36794213 1 2275519 3103759 30 21
1500850220.970963 36798763 0 2528373 2820279 60 184
1500850220.976496 36804333 1 2275495 3103760 6 21
1500850220.977831 36805898 0 2528385 2820310 68 202
1500850220.985182 36813033 0 2528385 2820338 64 216
1500850220.986600 36814562 1 2275513 3103768 23 28
1500850220.992163 36820167 0 2528396 2820347 71 211
1500850220.996775 36824902 1 2275507 3103781 16 39
1500850220.999277 36827301 0 2528404 2820369 75 219
1500850221.006550 36834435 0 2528403 2820380 70 216
1500850221.007951 36835022 1 2275524 3103805 31 60
1500850221.013611 36841569 0 2528410 2820402 73 224
1500850221.017254 36845250 1 2275508 3103782 15 35
1500850221.020692 36848704 0 2528402 2820414 61 222
1500850221.027495 36855589 1 2275537 3103804 42 54
1500850221.028887 36855838 0 2528436 2820390 90 186
1500850221.034946 36862973 0 2528402 2820429 53 211
1500850221.037598 36865710 1 2275525 3103790 29 38
1500850221.042124 36870108 0 2528415 2820468 62 235
1500850221.047707 36875939 1 2275529 3103819 31 63
1500850221.049302 36877242 0 2528432 2820466 75 219
1500850221.056130 36884376 0 2528435 2820490 74 228
1500850221.058129 36886277 1 2275538 3103838 38 77
1500850221.063254 36891510 0 2528409 2820492 45 216
1500850221.067982 36896397 1 2275524 3103839 23 74
1500850221.070322 36898645 0 2528447 2820502 78 212
1500850221.077650 36905782 0 2528417 2820472 45 171
1500850221.079021 36907338 1 2275547 3103842 44 73
1500850221.084613 36912918 0 2528428 2820496 53 183
1500850221.088612 36916858 1 2275528 3103852 24 78
1500850221.091701 36920054 0 2528433 2820544 55 217
1500850221.098753 36927197 1 2275536 3103869 30 90
1500850221.100236 36927190 0 2528485 2820531 101 192
1500850221.106080 36934326 0 2528455 2820576 67 223
1500850221.109009 36937317 1 2275531 3103871 24 87
1500850221.113137 36941462 0 2528459 2820612 67 243
1500850221.119076 36947548 1 2275548 3103881 39 91
1500850221.120551 36948597 0 2528506 2820615 107 231
1500850221.127445 36955732 0 2528476 2820629 73 230
1500850221.129333 36957778 1 2275567 3103888 55 92
1500850221.134527 36962867 0 2528488 2820688 80 271
1500850221.139374 36968117 1 2275553 3103897 39 95
1500850221.141555 36970002 0 2528495 2820669 82 237
1500850221.148499 36977137 0 2528499 2820650 81 205
1500850221.150089 36978238 1 2275563 3103910 46 102
1500850221.155845 36984272 0 2528500 2820718 77 256
1500850221.159892 36988469 1 2275552 3103901 33 88
1500850221.162963 36991407 0 2528506 2820716 78 239
1500850221.170148 36998542 0 2528538 2820734 104 241
1500850221.171448 36998698 1 2275573 3103928 51 108
1500850221.177026 37005677 0 2528523 2820754 84 245
1500850221.180282 37008928 1 2275558 3103917 34 91
1500850221.184404 37012812 0 2528526 2820772 82 247
1500850221.190604 37019157 1 2275569 3103937 43 105
1500850221.192092 37019947 0 2528543 2820821 93 278
1500850221.198425 37027082 0 2528537 2820852 82 290
1500850221.200622 37029496 1 2275585 3103939 56 101
1500850221.205732 37034217 0 2528555 2820854 94 274
1500850221.210812 37039726 1 2275570 3103934 39 90
1500850221.212697 37041351 0 2528549 2820856 83 259
1500850221.220013 37048486 0 2528523 2820843 54 231
1500850221.221209 37050043 1 2275579 3103937 45 88
1500850221.226832 37055621 0 2528536 2820815 63 191
1500850221.231203 37060074 1 2275581 3103968 45 112
1500850221.233863 37062757 0 2528501 2820753 27 121
1500850221.241121 37069892 0 2528500 2820697 25 61
1500850221.242515 37070303 1 2275588 3103970 49 107
1500850221.248319 37077028 0 2528455 2820587 -18 -45
1500850221.251815 37080643 1 2275589 3103967 47 98
1500850221.255456 37084165 0 2528415 2820512 -54 -112
1500850221.261859 37090764 1 2275604 3103962 59 88
1500850221.263448 37091301 0 2528376 2820385 -87 -224
1500850221.269539 37098436 0 2528344 2820304 -111 -285
1500850221.272046 37100994 1 2275586 3103975 39 95
1500850221.276821 37105572 0 2528294 2820202 -150 -362
1500850221.282196 37111225 1 2275579 3103972 30 87
1500850221.283856 37112707 0 2528288 2820125 -146 -411
1500850221.291096 37119842 0 2528253 2820056 -169 -450
1500850221.292439 37121454 1 2275585 3103931 34 44
1500850221.298164 37126978 0 2528214 2819988 -195 -485
1500850221.302866 37131684 1 2275574 3103919 22 30
1500850221.305314 37134113 0 2528208 2819931 -188 -508
1500850221.312486 37141248 0 2528182 2819875 -200 -528
1500850221.313751 37142873 1 2275562 3103869 10 -18
1500850221.319458 37148384 0 2528177 2819856 -192 -512
1500850221.323296 37152145 1 2275556 3103823 4 -60
1500850221.326746 37155519 0 2528143 2819815 -211 -518
1500850221.333611 37162483 1 2275525 3103768 -25 -107
1500850221.334922 37162654 0 2528139 2819729 -201 -566
1500850221.340771 37169790 0 2528147 2819764 -180 -497
1500850221.343418 37172713 1 2275512 3103714 -35 -150
1500850221.347979 37176925 0 2528132 2819703 -182 -523
1500850221.353851 37182835 1 2275510 3103645 -34 -205
1500850221.355248 37184061 0 2528124 2819687 -178 -505
1500850221.362069 37191197 0 2528103 2819670 -186 -489
1500850221.363762 37193175 1 2275491 3103593 -49 -240
1500850221.369260 37198333 0 2528087 2819657 -189 -470
1500850221.374188 37203406 1 2275460 3103534 -75 -280
1500850221.376429 37205468 0 2528096 2819622 -168 -473
1500850221.383564 37212604 0 2528072 2819609 -180 -455
1500850221.384821 37213527 1 2275451 3103480 -78 -313
1500850221.390477 37219741 0 2528069 2819637 -171 -400
1500850221.394574 37223757 1 2275423 3103433 -99 -337
1500850221.397528 37226876 0 2528071 2819632 -158 -379
1500850221.404889 37233988 1 2275404 3103379 -110 -366
1500850221.406243 37234012 0 2528094 2819597 -126 -388
1500850221.411979 37241148 0 2528054 2819591 -155 -369
1500850221.415035 37244327 1 2275388 3103358 -118 -362
1500850221.419153 37248284 0 2528064 2819594 -135 -343
1500850221.425228 37254449 1 2275378 3103347 -120 -349
1500850221.426617 37255419 0 2528090 2819575 -102 -339
1500850221.433444 37262555 0 2528049 2819584 -134 -309
1500850221.435457 37264680 1 2275364 3103319 -125 -353
1500850221.440431 37269691 0 2528041 2819562 -133 -310
1500850221.445574 37274911 1 2275380 3103326 -102 -324
1500850221.447585 37276826 0 2528064 2819582 -103 -271
1500850221.454685 37283962 0 2528045 2819556 -114 -278
1500850221.456138 37285142 1 2275366 3103288 -108 -339
1500850221.461637 37291097 0 2528043 2819594 -108 -225
1500850221.465930 37295374 1 2275349 3103303 -117 -303
1500850221.468701 37298233 0 2528056 2819610 -89 -195
1500850221.475883 37305368 0 2528093 2819626 -48 -167
1500850221.477397 37305604 1 2275354 3103292 -105 -294
1500850221.483019 37312503 0 2528062 2819669 -74 -116
1500850221.486295 37315943 1 2275356 3103315 -96 -254
1500850221.490200 37319638 0 2528074 2819696 -58 -83
1500850221.496619 37326063 1 2275335 3103316 -109 -237
1500850221.497958 37326772 0 2528125 2819726 -6 -49
1500850221.504297 37333907 0 2528106 2819755 -23 -18
1500850221.506607 37336293 1 2275351 3103326 -87 -212
1500850221.511335 37341042 0 2528118 2819797 -10 23
1500850221.516911 37346524 1 2275366 3103351 -67 -175
1500850221.518760 37348177 0 2528132 2819811 4 35
1500850221.525599 37355313 0 2528133 2819819 5 41
1500850221.527117 37356755 1 2275394 3103338 -36 -176
1500850221.532736 37362448 0 2528139 2819840 11 59
1500850221.537297 37366986 1 2275381 3103382 -45 -123
1500850221.539828 37369583 0 2528141 2819847 13 62
1500850221.546967 37376718 0 2528156 2819826 27 39
1500850221.548361 37377217 1 2275403 3103405 -21 -93
1500850221.554002 37383854 0 2528138 2819858 9 67
1500850221.557676 37387447 1 2275385 3103406 -36 -86
1500850221.561049 37390989 0 2528130 2819851 1 57
1500850221.567991 37397677 1 2275372 3103430 -45 -58
1500850221.569352 37398125 0 2528132 2819837 3 41
1500850221.575358 37405261 0 2528126 2819856 -2 57
1500850221.578094 37407908 1 2275399 3103413 -16 -70
1500850221.582474 37412396 0 2528145 2819860 16 58
1500850221.588095 37418138 1 2275417 3103460 2 -21
1500850221.589550 37419532 0 2528161 2819867 30 61
1500850221.596604 37426668 0 2528133 2819869 2 60
1500850221.598326 37428370 1 2275405 3103462 -9 -17
1500850221.603805 37433804 0 2528128 2819899 -2 85
1500850221.608424 37438602 1 2275416 3103490 2 11
1500850221.610904 37440940 0 2528143 2819886 13 68
1500850221.618061 37448076 0 2528153 2819886 22 64
1500850221.619342 37448831 1 2275425 3103478 11 0
1500850221.625059 37455212 0 2528167 2819888 34 62
1500850221.628813 37459061 1 2275421 3103502 7 23
1500850221.632369 37462347 0 2528151 2819913 17 82
1500850221.639287 37469291 1 2275412 3103493 -1 14
1500850221.640665 37469483 0 2528159 2819923 24 87
1500850221.646470 37476618 0 2528157 2819956 21 113
1500850221.649515 37479521 1 2275419 3103495 6 15
1500850221.653779 37483753 0 2528161 2819984 24 133
1500850221.659598 37489751 1 2275424 3103488 11 8
1500850221.661136 37490889 0 2528197 2819992 57 133
1500850221.667933 37498025 0 2528172 2820002 30 135
1500850221.669777 37500090 1 2275420 3103467 7 -12
1500850221.674962 37505161 0 2528173 2820014 30 138
1500850221.679992 37510320 1 2275406 3103494 -6 15
1500850221.682097 37512296 0 2528188 2820032 43 147
1500850221.689268 37519432 0 2528192 2820031 45 137
1500850221.690653 37520441 1 2275427 3103492 15 13
1500850221.696391 37526567 0 2528197 2820076 47 171
1500850221.700216 37530781 1 2275413 3103503 1 23
1500850221.703517 37533702 0 2528208 2820097 55 180
1500850221.710631 37540839 0 2528234 2820106 76 178
1500850221.711820 37540902 1 2275434 3103494 21 14
1500850221.717565 37547974 0 2528200 2820141 40 200
1500850221.720727 37551243 1 2275432 3103496 18 15
1500850221.724865 37555110 0 2528237 2820156 73 202
1500850221.730910 37561364 1 2275448 3103507 32 25
1500850221.732365 37562246 0 2528258 2820176 89 209
1500850221.739054 37569381 0 2528232 2820187 60 207
1500850221.741150 37571594 1 2275432 3103491 15 9
1500850221.746179 37576516 0 2528229 2820196 54 203
1500850221.751262 37581824 1 2275434 3103517 16 33
1500850221.753141 37583651 0 2528246 2820228 67 221
1500850221.760466 37590786 0 2528252 2820246 69 225
1500850221.761648 37592054 1 2275449 3103527 30 41
1500850221.767527 37597921 0 2528239 2820273 53 237
1500850221.771896 37602393 1 2275449 3103522 29 34
1500850221.774584 37605056 0 2528267 2820311 76 258
1500850221.781785 37612192 0 2528297 2820329 100 259
1500850221.783030 37612514 1 2275440 3103524 19 34
1500850221.788872 37619327 0 2528272 2820354 71 267
1500850221.792069 37622852 1 2275444 3103524 22 32
1500850221.795969 37626462 0 2528285 2820367 79 263
1500850221.802620 37632973 1 2275452 3103563 29 67
1500850221.804170 37633597 0 2528301 2820389 90 268
1500850221.810166 37640731 0 2528296 2820385 80 248
1500850221.812575 37643202 1 2275465 3103546 40 47
1500850221.817193 37647866 0 2528299 2820423 78 269
1500850221.822615 37653541 1 2275468 3103582 41 78
1500850221.824339 37655001 0 2528320 2820424 93 254
1500850221.831453 37662135 0 2528296 2820425 65 240
1500850221.832943 37663660 1 2275452 3103577 24 69
1500850221.838572 37669269 0 2528299 2820461 64 259
1500850221.843149 37673999 1 2275477 3103591 46 78
1500850221.845555 37676404 0 2528307 2820480 68 261
1500850221.852730 37683539 0 2528305 2820454 62 221
1500850221.854004 37685099 1 2275471 3103574 38 58
1500850221.859728 37690674 0 2528306 2820484 60 236
1500850221.863407 37694347 1 2275458 3103626 24 104
1500850221.866856 37697809 0 2528327 2820490 76 227
1500850221.873601 37704686 1 2275482 3103598 45 72
1500850221.875002 37704944 0 2528328 2820487 73 210
1500850221.881007 37712080 0 2528325 2820517 66 225
1500850221.883766 37714915 1 2275484 3103631 45 99
1500850221.888260 37719214 0 2528332 2820549 69 241
1500850221.893941 37725143 1 2275471 3103636 30 98
1500850221.895583 37726349 0 2528338 2820550 71 227
1500850221.902525 37733485 0 2528352 2820561 80 224
1500850221.904193 37735263 1 2275494 3103657 50 112
1500850221.909659 37740620 0 2528340 2820555 64 205
1500850221.914535 37745601 1 2275473 3103655 28 104
1500850221.916651 37747755 0 2528358 2820588 77 224
1500850221.923829 37754890 0 2528338 2820578 54 201
1500850221.925288 37755720 1 2275491 3103667 44 109
1500850221.931064 37762024 0 2528357 2820627 69 235
1500850221.934852 37765949 1 2275495 3103677 45 112
1500850221.937970 37769159 0 2528359 2820630 67 224
1500850221.945006 37776287 1 2275490 3103697 38 124
1500850221.946413 37776294 0 2528397 2820638 99 218
1500850221.952226 37783429 0 2528372 2820684 70 248
1500850221.955245 37786517 1 2275490 3103688 36 108
1500850221.959427 37790565 0 2528387 2820711 80 258
1500850221.965371 37796637 1 2275522 3103700 64 113
1500850221.967055 37797700 0 2528428 2820730 114 260
1500850221.973547 37804835 0 2528389 2820713 71 228
1500850221.975636 37806867 1 2275507 3103689 46 96
1500850221.980725 37811971 0 2528388 2820741 66 240
1500850221.985853 37817098 1 2275519 3103706 55 106
1500850221.987759 37819105 0 2528410 2820739 83 224
1500850221.994959 37826240 0 2528412 2820740 80 211
1500850221.996324 37827800 1 2275532 3103715 64 108
1500850222.002105 37833373 0 2528418 2820779 81 235
1500850222.006094 37837665 1 2275531 3103707 60 94
1500850222.009023 37840507 0 2528427 2820812 85 252
1500850222.016094 37847641 0 2528445 2820803 97 228
1500850222.017625 37847784 1 2275509 3103753 36 132
1500850222.023333 37854775 0 2528415 2820817 63 227
1500850222.026592 37858121 1 2275526 3103734 50 106
1500850222.030398 37861909 0 2528414 2820857 59 251
1500850222.036849 37868351 1 2275532 3103770 53 134
1500850222.038395 37869044 0 2528447 2820837 87 217
1500850222.044769 37876178 0 2528415 2820807 52 176
1500850222.046974 37878471 1 2275532 3103772 50 128
1500850222.051818 37883313 0 2528390 2820768 26 129
1500850222.057055 37888702 1 2275532 3103777 47 125
1500850222.058917 37890448 0 2528379 2820717 15 74
1500850222.066046 37897583 0 2528334 2820641 -28 -1
1500850222.067434 37898931 1 2275551 3103780 62 120
1500850222.073216 37904717 0 2528314 2820525 -45 -109
1500850222.077572 37909160 1 2275538 3103773 46 106
1500850222.080324 37911852 0 2528247 2820418 -105 -202
1500850222.087473 37918986 0 2528234 2820314 -110 -286
1500850222.088779 37919389 1 2275555 3103789 60 115
1500850222.094627 37926121 0 2528187 2820223 -147 -353
1500850222.097971 37929728 1 2275551 3103782 53 102
1500850222.101646 37933256 0 2528151 2820109 -171 -437
1500850222.108265 37939956 1 2275538 3103800 38 113
1500850222.109834 37940390 0 2528109 2820027 -199 -486
1500850222.115896 37947525 0 2528077 2819948 -216 -529
1500850222.118327 37950185 1 2275535 3103753 33 62
1500850222.122982 37954660 0 2528051 2819882 -226 -557
1500850222.128402 37960414 1 2275529 3103733 26 40
1500850222.130188 37961794 0 2528057 2819791 -206 -607
1500850222.137159 37968929 0 2528020 2819755 -227 -602
1500850222.138675 37970643 1 2275536 3103698 31 5
1500850222.144288 37976064 0 2527994 2819713 -237 -603
1500850222.148767 37980762 1 2275515 3103644 10 -45
1500850222.151559 37983199 0 2527986 2819680 -229 -596
1500850222.158601 37990334 0 2527973 2819653 -226 -584
1500850222.160160 37990991 1 2275491 3103572 -13 -109
1500850222.165648 37997469 0 2527981 2819648 -204 -552
1500850222.169428 38001221 1 2275487 3103518 -15 -152
1500850222.172740 38004605 0 2527953 2819628 -217 -536
1500850222.179715 38011559 1 2275456 3103451 -43 -205
1500850222.181109 38011740 0 2527962 2819597 -195 -531
1500850222.187127 38018876 0 2527948 2819635 -195 -462
1500850222.189731 38021679 1 2275436 3103385 -59 -254
1500850222.194109 38026010 0 2527940 2819622 -190 -445
1500850222.199989 38032019 1 2275401 3103341 -88 -279
1500850222.201414 38033145 0 2527949 2819615 -169 -423
1500850222.208435 38040280 0 2527935 2819586 -171 -423
1500850222.210112 38042139 1 2275399 3103278 -84 -320
1500850222.215422 38047415 0 2527925 2819580 -169 -402
1500850222.220266 38052370 1 2275377 3103240 -99 -335
1500850222.222542 38054551 0 2527927 2819569 -156 -387
1500850222.229776 38061686 0 2527915 2819533 -157 -396
1500850222.231082 38062601 1 2275350 3103181 -118 -369
1500850222.236636 38068822 0 2527899 2819564 -162 -342
1500850222.240729 38072941 1 2275339 3103143 -120 -381
1500850222.243814 38075958 0 2527900 2819525 -150 -357
1500850222.250971 38083061 1 2275338 3103153 -113 -347
1500850222.252492 38083093 0 2527914 2819515 -127 -344
1500850222.258063 38090228 0 2527893 2819546 -138 -293
1500850222.261093 38093399 1 2275331 3103121 -112 -355
1500850222.265176 38097363 0 2527883 2819536 -138 -284
1500850222.271346 38103627 1 2275337 3103113 -99 -340
1500850222.272818 38104498 0 2527942 2819558 -74 -245
1500850222.279705 38111633 0 2527905 2819584 -104 -205
1500850222.281687 38113747 1 2275317 3103111 -111 -320
1500850222.286596 38118767 0 2527924 2819622 -79 -156
1500850222.291828 38123976 1 2275317 3103106 -104 -304
1500850222.293686 38125903 0 2527912 2819635 -85 -134
1500850222.300756 38133038 0 2527928 2819648 -64 -113
1500850222.302353 38134206 1 2275323 3103089 -91 -300
1500850222.307854 38140174 0 2527930 2819701 -58 -56
1500850222.312096 38144435 1 2275322 3103100 -86 -270
1500850222.315138 38147309 0 2527958 2819747 -28 -9
1500850222.322152 38154445 0 2528004 2819780 17 23
1500850222.323530 38154665 1 2275318 3103099 -84 -254
1500850222.329169 38161580 0 2527989 2819835 2 74
1500850222.332578 38164894 1 2275312 3103106 -84 -231
1500850222.336244 38168716 0 2528003 2819911 15 141
1500850222.342781 38175234 1 2275316 3103116 -75 -207
1500850222.344081 38175852 0 2528031 2819936 41 156
1500850222.350441 38182988 0 2528016 2819984 25 192
1500850222.352844 38185356 1 2275328 3103144 -59 -167
1500850222.357594 38190123 0 2528030 2819992 37 188
1500850222.363097 38195696 1 2275339 3103154 -45 -147
1500850222.364723 38197258 0 2528050 2819995 54 180
1500850222.372017 38204394 0 2528032 2820002 34 176
1500850222.373221 38205951 1 2275340 3103172 -41 -120
1500850222.379010 38211529 0 2528031 2820027 31 189
1500850222.383463 38216048 1 2275331 3103185 -46 -100
1500850222.386082 38218665 0 2528051 2820017 48 168
1500850222.393113 38225800 0 2528050 2820037 45 177
1500850222.394581 38227358 1 2275346 3103219 -29 -61
1500850222.400160 38232935 0 2528034 2820049 28 178
1500850222.403780 38236618 1 2275339 3103223 -33 -53
1500850222.407336 38240070 0 2528045 2820046 37 165
1500850222.414083 38246739 1 2275341 3103240 -29 -33
1500850222.415418 38247205 0 2528042 2820039 32 149
1500850222.421469 38254341 0 2528041 2820060 30 160
1500850222.424122 38257078 1 2275353 3103259 -15 -13
1500850222.428745 38261475 0 2528034 2820028 22 120
1500850222.434323 38267199 1 2275371 3103261 3 -10
1500850222.435763 38268610 0 2528053 2820065 39 148
1500850222.442911 38275746 0 2528050 2820065 34 139
1500850222.444349 38277538 1 2275368 3103277 0 6
1500850222.450013 38282881 0 2528047 2820105 30 168
1500850222.454712 38287659 1 2275361 3103272 -6 1
1500850222.457031 38290016 0 2528071 2820112 51 165
1500850222.465171 38297151 0 2528055 2820130 33 172
1500850222.466099 38297888 1 2275374 3103275 7 4
1500850222.471368 38304286 0 2528065 2820145 41 176
1500850222.475002 38308118 1 2275359 3103289 -7 17
1500850222.478618 38311420 0 2528067 2820170 41 189
1500850222.485545 38318348 1 2275372 3103279 6 7
1500850222.486871 38318555 0 2528063 2820124 35 135
1500850222.492615 38325689 0 2528047 2820166 18 166
1500850222.495394 38328687 1 2275373 3103290 7 17
1500850222.499843 38332824 0 2528042 2820137 13 129
1500850222.505788 38338917 1 2275372 3103292 6 18
1500850222.506964 38339958 0 2528056 2820132 26 117
1500850222.514022 38347093 0 2528033 2820112 3 91
1500850222.515820 38349037 1 2275373 3103314 7 38
1500850222.521078 38354228 0 2528040 2820121 10 94
1500850222.526018 38359267 1 2275361 3103301 -4 24
1500850222.528124 38361363 0 2528041 2820135 11 102
1500850222.535368 38368498 0 2528034 2820114 4 76
1500850222.536684 38370010 1 2275388 3103310 22 31
1500850222.542435 38375633 0 2528044 2820157 14 112
1500850222.546508 38379835 1 2275386 3103305 19 25
1500850222.549535 38382768 0 2528058 2820190 27 136
1500850222.556710 38389903 0 2528095 2820178 60 117
1500850222.558114 38389956 1 2275386 3103331 18 48
1500850222.563960 38397039 0 2528080 2820276 43 202
1500850222.566965 38400185 1 2275390 3103322 21 37
1500850222.571077 38404174 0 2528096 2820293 56 206
1500850222.577231 38410524 1 2275392 3103327 22 40
1500850222.578640 38411309 0 2528144 2820365 98 261
1500850222.585036 38418444 0 2528114 2820392 64 270
1500850222.587387 38420643 1 2275394 3103337 23 47
1500850222.592407 38425579 0 2528135 2820444 80 302
1500850222.597518 38430874 1 2275400 3103340 28 47
1500850222.599437 38432714 0 2528152 2820460 91 299
1500850222.606582 38439849 0 2528157 2820476 90 296
1500850222.607883 38441103 1 2275414 3103345 40 49
1500850222.613639 38446984 0 2528148 2820511 76 311
1500850222.617844 38451333 1 2275398 3103358 23 59
1500850222.620579 38454119 0 2528151 2820544 75 323
1500850222.627785 38461254 0 2528196 2820555 113 314
1500850222.629125 38461562 1 2275417 3103376 40 73
1500850222.634962 38468389 0 2528166 2820552 78 292
1500850222.638106 38471792 1 2275415 3103400 36 91
1500850222.641942 38475524 0 2528171 2820550 78 272
1500850222.648576 38482022 1 2275427 3103415 45 100
1500850222.649778 38482659 0 2528185 2820541 87 247
1500850222.656048 38489794 0 2528160 2820557 59 247
1500850222.658549 38492253 1 2275435 3103423 50 102
1500850222.663282 38496929 0 2528171 2820552 66 227
1500850222.668777 38502593 1 2275425 3103433 38 105
1500850222.670432 38504064 0 2528170 2820556 61 217
1500850222.677471 38511199 0 2528161 2820580 49 226
1500850222.679023 38512713 1 2275442 3103432 52 98
1500850222.684653 38518334 0 2528171 2820595 56 226
1500850222.689077 38522943 1 2275442 3103456 49 115
1500850222.691612 38525470 0 2528198 2820610 78 226
1500850222.698757 38532605 0 2528186 2820624 62 225
1500850222.700055 38533173 1 2275441 3103472 45 123
1500850222.705723 38539740 0 2528177 2820635 50 222
1500850222.709309 38543405 1 2275436 3103465 38 109
1500850222.712905 38546875 0 2528177 2820632 47 206
1500850222.719596 38553635 1 2275440 3103485 40 121
1500850222.721067 38554010 0 2528185 2820607 52 170
1500850222.727109 38561146 0 2528170 2820619 35 171
1500850222.729799 38563866 1 2275443 3103504 41 132
1500850222.734193 38568280 0 2528177 2820629 40 170
1500850222.739882 38574207 1 2275456 3103499 51 120
1500850222.741378 38575415 0 2528192 2820588 52 121
1500850222.748522 38582550 0 2528175 2820618 33 142
1500850222.750150 38584328 1 2275480 3103507 71 120
1500850222.755542 38589685 0 2528199 2820622 54 137
1500850222.760290 38594667 1 2275464 3103532 52 136
1500850222.762683 38596820 0 2528193 2820631 45 137
1500850222.769788 38603955 0 2528168 2820635 19 133
1500850222.771218 38604788 1 2275484 3103530 68 126
1500850222.776735 38611090 0 2528185 2820642 34 132
1500850222.780801 38615018 1 2275467 3103542 48 130
1500850222.783934 38618225 0 2528202 2820664 48 145
1500850222.791008 38625249 1 2275464 3103561 43 140
1500850222.792340 38625360 0 2528203 2820668 46 140
1500850222.798187 38632495 0 2528199 2820693 40 155
1500850222.802831 38635479 1 2275484 3103563 60 134
1500850222.805765 38639630 0 2528208 2820692 46 145
1500850222.811617 38645710 1 2275469 3103571 43 134
1500850222.813005 38646765 0 2528233 2820719 67 162
1500850222.819606 38653900 0 2528213 2820721 45 154
1500850222.821577 38655940 1 2275489 3103581 60 135
1500850222.826761 38661034 0 2528212 2820762 42 183
1500850222.831834 38666278 1 2275490 3103584 58 130
1500850222.833713 38668169 0 2528231 2820782 58 191
1500850222.840780 38675304 0 2528247 2820808 70 204
1500850222.842381 38676398 1 2275510 3103597 74 135
1500850222.848099 38682440 0 2528270 2820850 88 231
1500850222.852142 38686738 1 2275501 3103600 61 130
1500850222.855039 38689575 0 2528245 2820854 60 221
1500850222.862345 38696710 0 2528289 2820854 98 208
1500850222.863631 38698270 1 2275513 3103635 69 155
1500850222.869397 38703845 0 2528252 2820883 58 223
1500850222.872570 38707197 1 2275503 3103624 56 135
1500850222.876472 38710980 0 2528249 2820889 52 215
1500850222.882764 38717318 1 2275518 3103623 67 126
1500850222.884173 38718116 0 2528289 2820874 87 188
1500850222.890793 38725252 0 2528251 2820884 46 186
1500850222.892947 38727548 1 2275526 3103638 71 133
1500850222.897901 38732387 0 2528260 2820901 52 191
1500850222.903308 38737888 1 2275516 3103641 58 128
1500850222.904862 38739522 0 2528274 2820888 62 167
1500850222.912076 38746657 0 2528270 2820920 55 187
1500850222.913712 38748007 1 2275529 3103658 67 136
1500850222.919087 38753792 0 2528267 2820940 49 195
1500850222.923676 38758347 1 2275539 3103674 73 143
1500850222.926265 38760927 0 2528276 2820949 55 192
1500850222.933378 38768063 0 2528294 2820975 69 205
1500850222.934781 38769619 1 2275535 3103684 65 144
1500850222.940890 38775199 0 2528273 2821010 45 225
1500850222.944368 38778808 1 2275540 3103693 66 144
1500850222.948433 38782334 0 2528294 2821058 62 256
1500850222.954488 38789038 1 2275535 3103699 58 141
1500850222.955969 38789470 0 2528300 2821082 64 263
1500850222.962107 38796606 0 2528330 2821147 89 308
1500850222.964579 38799159 1 2275566 3103702 84 135
1500850222.969205 38803741 0 2528343 2821174 96 315
1500850222.974943 38809388 1 2275555 3103745 69 167
1500850222.976353 38810877 0 2528342 2821187 90 308
1500850222.983296 38818013 0 2528345 2821173 88 276
1500850222.985090 38819619 1 2275570 3103730 79 143
1500850222.990626 38825149 0 2528309 2821138 49 226
1500850222.995189 38829850 1 2275557 3103748 62 151
1500850222.997714 38832284 0 2528306 2821045 44 125
1500850223.004837 38839420 0 2528233 2820897 -27 -21
1500850223.006094 38841001 1 2275567 3103763 68 156
1500850223.011839 38846557 0 2528163 2820748 -90 -159
1500850223.015798 38850311 1 2275556 3103755 54 139
1500850223.018984 38853692 0 2528117 2820607 -127 -281
1500850223.025825 38860541 1 2275566 3103752 60 128
1500850223.027283 38860828 0 2528059 2820433 -173 -426
1500850223.033235 38867964 0 2528007 2820330 -210 -495
1500850223.036044 38870771 1 2275576 3103763 66 131
1500850223.040450 38875100 0 2527945 2820213 -255 -573
1500850223.046189 38881001 1 2275563 3103745 50 106
1500850223.047548 38882236 0 2527943 2820114 -240 -630
1500850223.054613 38889373 0 2527900 2820073 -265 -629
1500850223.056369 38891231 1 2275583 3103729 66 85
1500850223.061800 38896509 0 2527875 2819997 -271 -660
1500850223.066545 38901462 1 2275571 3103686 51 40
1500850223.068752 38903644 0 2527881 2819962 -248 -651
1500850223.075872 38910780 0 2527829 2819898 -281 -670
1500850223.077368 38912405 1 2275557 3103631 35 -14
1500850223.083132 38917916 0 2527853 2819892 -240 -633
1500850223.087115 38921923 1 2275500 3103585 -20 -56
1500850223.090240 38925053 0 2527829 2819869 -247 -615
1500850223.097308 38932262 1 2275515 3103514 -4 -119
1500850223.098763 38932189 0 2527847 2819814 -214 -628
1500850223.104543 38939325 0 2527828 2819820 -218 -583
1500850223.107440 38942384 1 2275465 3103453 -50 -168
1500850223.111617 38946462 0 2527832 2819804 -200 -561
1500850223.117850 38952616 1 2275462 3103409 -49 -198
1500850223.119173 38953598 0 2527838 2819823 -181 -508
1500850223.125807 38960735 0 2527816 2819804 -190 -494
1500850223.127772 38962957 1 2275428 3103335 -77 -255
1500850223.133001 38967872 0 2527794 2819808 -198 -459
1500850223.138063 38973189 1 2275437 3103267 -63 -302
1500850223.139976 38975007 0 2527810 2819777 -170 -459
1500850223.147350 38982143 0 2527791 2819761 -177 -445
1500850223.148572 38983311 1 2275414 3103246 -80 -302
1500850223.154223 38989279 0 2527789 2819773 -167 -405
1500850223.158509 38993542 1 2275379 3103185 -107 -340
1500850223.161468 38996414 0 2527783 2819773 -162 -379
1500850223.168392 39003551 0 2527799 2819739 -136 -387
1500850223.169866 39003774 1 2275372 3103144 -106 -357
1500850223.175619 39010687 0 2527768 2819723 -156 -377
1500850223.178956 39014005 1 2275366 3103125 -105 -352
1500850223.183154 39017823 0 2527764 2819722 -150 -354
1500850223.189360 39024237 1 2275355 3103096 -108 -357
1500850223.190593 39024959 0 2527776 2819702 -129 -350
1500850223.196907 39032094 0 2527751 2819724 -144 -307
1500850223.199303 39034466 1 2275345 3103107 -110 -324
1500850223.203815 39039229 0 2527765 2819728 -121 -284
1500850223.209373 39044696 1 2275334 3103064 -113 -344
1500850223.210940 39046364 0 2527758 2819750 -120 -245
1500850223.218091 39053499 0 2527761 2819751 -109 -228
1500850223.219577 39054925 1 2275343 3103086 -97 -301
1500850223.225322 39060634 0 2527771 2819774 -92 -192
1500850223.229670 39065154 1 2275332 3103066 -101 -300
1500850223.232312 39067768 0 2527785 2819805 -73 -150
1500850223.239591 39074903 0 2527804 2819815 -50 -131
1500850223.240836 39076506 1 2275353 3103082 -75 -266
1500850223.246672 39082038 0 2527796 2819851 -54 -89
1500850223.250073 39085613 1 2275321 3103074 -100 -256
1500850223.253690 39089174 0 2527802 2819894 -45 -43
1500850223.260445 39095842 1 2275348 3103100 -68 -215
1500850223.261803 39096309 0 2527828 2819907 -17 -28
1500850223.268023 39103443 0 2527827 2819917 -16 -16
1500850223.270569 39106072 1 2275357 3103131 -55 -172
1500850223.275037 39110579 0 2527814 2819948 -27 15
1500850223.281002 39116303 1 2275358 3103138 -50 -154
1500850223.282698 39117713 0 2527843 2819953 2 19
1500850223.289232 39124848 0 2527840 2819964 0 29
1500850223.290922 39126532 1 2275368 3103161 -37 -122
